Signal handled: Interrupt.
1	1.000000
1001	473.859311
2001	912.079807
3001	1342.140455
4001	1767.622229
5001	2190.000266
6001	2610.061568
7001	3028.288345
8001	3445.001579
9001	3860.427105
10001	4274.763628
11001	4688.149521
12001	5100.682613
13001	5512.431647
14001	5923.464539
15001	6333.844095
16001	6743.595827
17001	7152.796832
18001	7561.468866
19001	7969.649895
20001	8377.372416
21001	8784.676780
22001	9191.583172
23001	9598.102128
24001	10004.242713
25001	10410.033369
26001	10815.479777
27001	11220.588844
28001	11625.379808
29001	12029.861876
30001	12434.053095
31001	12837.948516
32001	13241.571396
33001	13644.919959
34001	14048.002060
35001	14450.827487
36001	14853.394853
37001	15255.713233
38001	15657.784609
39001	16059.616973
40001	16461.220269
41001	16862.588428
42001	17263.730683
43001	17664.661267
44001	18065.378833
45001	18465.887170
46001	18866.186958
47001	19266.280300
48001	19666.167922
49001	20065.861164
50001	20465.365454
51001	20864.673192
52001	21263.789558
53001	21662.717011
54001	22061.462682
55001	22460.032217
56001	22858.421728
57001	23256.639264
58001	23654.683610
59001	24052.551403
60001	24450.240860
61001	24847.756145
62001	25245.105441
63001	25642.295169
64001	26039.323596
65001	26436.184866
66001	26832.888309
67001	27229.430514
68001	27625.813024
69001	28022.039198
70001	28418.103771
71001	28814.005206
72001	29209.746307
73001	29605.330685
74001	30000.764162
75001	30396.045882
76001	30791.171009
77001	31186.142085
78001	31580.969855
79001	31975.644180
80001	32370.167363
81001	32764.545119
82001	33158.772032
83001	33552.852831
84001	33946.788405
85001	34340.583103
86001	34734.238374
87001	35127.746401
88001	35521.115320
89001	35914.347742
90001	36307.438079
91001	36700.386967
92001	37093.193634
93001	37485.861541
94001	37878.391973
95001	38270.786226
96001	38663.047019
97001	39055.173861
98001	39447.164868
99001	39839.021646
100001	40230.740558
101001	40622.330820
102001	41013.794167
103001	41405.123956
104001	41796.317382
105001	42187.383930
106001	42578.322671
107001	42969.129542
108001	43359.805694
109001	43750.352299
110001	44140.767500
111001	44531.045938
112001	44921.191981
113001	45311.204389
114001	45701.083338
115001	46090.834973
116001	46480.456936
117001	46869.951094
118001	47259.316514
119001	47648.555458
120001	48037.663295
121001	48426.638346
122001	48815.488007
123001	49204.212842
124001	49592.812102
125001	49981.286234
126001	50369.635836
127001	50757.855810
128001	51145.944510
129001	51533.905125
130001	51921.735515
131001	52309.442075
132001	52697.022199
133001	53084.477287
134001	53471.807444
135001	53859.011200
136001	54246.090504
137001	54633.048497
138001	55019.881113
139001	55406.588405
140001	55793.169506
141001	56179.620006
142001	56565.941380
143001	56952.136096
144001	57338.205179
145001	57724.146578
146001	58109.964507
147001	58495.657615
148001	58881.223032
149001	59266.660804
150001	59651.972524
151001	60037.156723
152001	60422.220436
153001	60807.166694
154001	61191.982716
155001	61576.672898
156001	61961.241005
157001	62345.682500
158001	62729.999093
159001	63114.185209
160001	63498.245621
161001	63882.180577
162001	64265.989314
163001	64649.674312
164001	65033.235892
165001	65416.671754
166001	65799.985543
167001	66183.175295
168001	66566.239087
169001	66949.175506
170001	67331.989519
171001	67714.682734
172001	68097.255537
173001	68479.702822
174001	68862.028553
175001	69244.228796
176001	69626.303741
177001	70008.260093
178001	70390.093880
179001	70771.804753
180001	71153.395134
181001	71534.863958
182001	71916.212072
183001	72297.433112
184001	72678.528106
185001	73059.505142
186001	73440.360976
187001	73821.094371
188001	74201.702266
189001	74582.187234
190001	74962.553037
191001	75342.795882
192001	75722.909222
193001	76102.896434
194001	76482.756061
195001	76862.490812
196001	77242.103242
197001	77621.591841
198001	78000.957082
199001	78380.193148
200001	78759.304265
201001	79138.295577
202001	79517.160489
203001	79895.901316
204001	80274.519200
205001	80653.011719
206001	81031.376105
207001	81409.614410
208001	81787.732860
209001	82165.729794
210001	82543.604530
211001	82921.354502
212001	83298.982088
213001	83676.485056
214001	84053.862101
215001	84431.114569
216001	84808.242920
217001	85185.246728
218001	85562.128451
219001	85938.887313
220001	86315.525670
221001	86692.037621
222001	87068.423469
223001	87444.683190
224001	87820.822047
225001	88196.835499
226001	88572.720200
227001	88948.483543
228001	89324.120474
229001	89699.633040
230001	90075.018479
231001	90450.279037
232001	90825.413255
233001	91200.426251
234001	91575.316396
235001	91950.080808
236001	92324.720950
237001	92699.235795
238001	93073.625374
239001	93447.888275
240001	93822.022346
241001	94196.028800
242001	94569.908779
243001	94943.663567
244001	95317.294761
245001	95690.800546
246001	96064.180290
247001	96437.429567
248001	96810.554196
249001	97183.553653
250001	97556.425805
251001	97929.171847
252001	98301.792055
253001	98674.282850
254001	99046.646646
255001	99418.888193
256001	99791.005443
257001	100162.993954
258001	100534.856572
259001	100906.591831
260001	101278.202294
261001	101649.686985
262001	102021.043844
263001	102392.271064
264001	102763.370477
265001	103134.344073
266001	103505.193143
267001	103875.912076
268001	104246.499651
269001	104616.957395
270001	104987.285631
271001	105357.482636
272001	105727.551560
273001	106097.491250
274001	106467.299347
275001	106836.976475
276001	107206.521797
277001	107575.938758
278001	107945.228414
279001	108314.389286
280001	108683.418718
281001	109052.316892
282001	109421.088600
283001	109789.730009
284001	110158.241865
285001	110526.619955
286001	110894.870119
287001	111262.989031
288001	111630.975366
289001	111998.832391
290001	112366.559328
291001	112734.154044
292001	113101.618269
293001	113468.951153
294001	113836.151286
295001	114203.221528
296001	114570.161039
297001	114936.967746
298001	115303.642363
299001	115670.182652
300001	116036.595073
301001	116402.875878
302001	116769.023269
303001	117135.040596
304001	117500.925561
305001	117866.674803
306001	118232.289976
307001	118597.772865
308001	118963.121247
309001	119328.337462
310001	119693.421687
311001	120058.369334
312001	120423.178267
313001	120787.852864
314001	121152.393616
315001	121516.800474
316001	121881.074523
317001	122245.213191
318001	122609.212931
319001	122973.078388
320001	123336.811303
321001	123700.410783
322001	124063.871816
323001	124427.194927
324001	124790.385426
325001	125153.440070
326001	125516.357400
327001	125879.133493
328001	126241.772102
329001	126604.274324
330001	126966.638655
331001	127328.864061
332001	127690.955909
333001	128052.910889
334001	128414.728628
335001	128776.410028
336001	129137.954895
337001	129499.361798
338001	129860.633169
339001	130221.766251
340001	130582.764327
341001	130943.625334
342001	131304.351192
343001	131664.938161
344001	132025.386658
345001	132385.699589
346001	132745.878064
347001	133105.919009
348001	133465.822028
349001	133825.585451
350001	134185.206941
351001	134544.690053
352001	134904.033307
353001	135263.237698
354001	135622.301344
355001	135981.226497
356001	136340.011924
357001	136698.656239
358001	137057.162868
359001	137415.526781
360001	137773.752100
361001	138131.838856
362001	138489.786452
363001	138847.594907
364001	139205.262657
365001	139562.788150
366001	139920.172036
367001	140277.414302
368001	140634.516512
369001	140991.477880
370001	141348.296546
371001	141704.972521
372001	142061.504275
373001	142417.893853
374001	142774.143660
375001	143130.249671
376001	143486.213612
377001	143842.034706
378001	144197.711848
379001	144553.245219
380001	144908.632387
381001	145263.873304
382001	145618.967833
383001	145973.918697
384001	146328.723861
385001	146683.386719
386001	147037.906664
387001	147392.282497
388001	147746.513176
389001	148100.598994
390001	148454.540416
391001	148808.339631
392001	149161.993570
393001	149515.503266
394001	149868.869526
395001	150222.088393
396001	150575.161528
397001	150928.088788
398001	151280.868266
399001	151633.501946
400001	151985.988593
401001	152338.326806
402001	152690.519915
403001	153042.564762
404001	153394.460358
405001	153746.204236
406001	154097.794446
407001	154449.239694
408001	154800.537592
409001	155151.685750
410001	155502.684073
411001	155853.534524
412001	156204.238342
413001	156554.795212
414001	156905.201022
415001	157255.456927
416001	157605.561566
417001	157955.516942
418001	158305.320182
419001	158654.975578
420001	159004.480584
421001	159353.833261
422001	159703.036010
423001	160052.088871
424001	160400.992578
425001	160749.743361
426001	161098.341340
427001	161446.786733
428001	161795.079720
429001	162143.222621
430001	162491.211142
431001	162839.045521
432001	163186.725209
433001	163534.251206
434001	163881.626691
435001	164228.850743
436001	164575.917463
437001	164922.828953
438001	165269.588484
439001	165616.196751
440001	165962.652952
441001	166308.957328
442001	166655.103826
443001	167001.095116
444001	167346.929692
445001	167692.606547
446001	168038.128337
447001	168383.495142
448001	168728.704764
449001	169073.757893
450001	169418.653181
451001	169763.394554
452001	170107.981632
453001	170452.412051
454001	170796.683349
455001	171140.798429
456001	171484.755549
457001	171828.554614
458001	172172.194561
459001	172515.677948
460001	172858.999859
461001	173202.164426
462001	173545.174272
463001	173888.022471
464001	174230.710896
465001	174573.241338
466001	174915.614065
467001	175257.826656
468001	175599.879694
469001	175941.771937
470001	176283.502606
471001	176625.072071
472001	176966.483361
473001	177307.735358
474001	177648.826102
475001	177989.753536
476001	178330.519305
477001	178671.124975
478001	179011.569891
479001	179351.854901
480001	179691.976489
481001	180031.932834
482001	180371.723545
483001	180711.351973
484001	181050.817525
485001	181390.122060
486001	181729.263806
487001	182068.243195
488001	182407.060332
489001	182745.713382
490001	183084.202899
491001	183422.525970
492001	183760.684667
493001	184098.678644
494001	184436.508139
495001	184774.173774
496001	185111.675936
497001	185449.015693
498001	185786.186374
499001	186123.189475
500001	186460.028343
501001	186796.700007
502001	187133.203502
503001	187469.538315
504001	187805.703801
505001	188141.702286
506001	188477.532909
507001	188813.194123
508001	189148.686625
509001	189484.008299
510001	189819.161685
511001	190154.144737
512001	190488.959019
513001	190823.604358
514001	191158.081865
515001	191492.387275
516001	191826.521444
517001	192160.485223
518001	192494.277298
519001	192827.899100
520001	193161.351764
521001	193494.632882
522001	193827.740221
523001	194160.672309
524001	194493.428445
525001	194826.010330
526001	195158.421331
527001	195490.660659
528001	195822.725749
529001	196154.618323
530001	196486.340129
531001	196817.887582
532001	197149.259995
533001	197480.459763
534001	197811.486415
535001	198142.338071
536001	198473.013589
537001	198803.508937
538001	199133.825608
539001	199463.961113
540001	199793.922463
541001	200123.710677
542001	200453.323695
543001	200782.761198
544001	201112.024000
545001	201441.113321
546001	201770.023508
547001	202098.757132
548001	202427.315844
549001	202755.696289
550001	203083.898395
551001	203411.925795
552001	203739.776546
553001	204067.446400
554001	204394.935548
555001	204722.243845
556001	205049.369289
557001	205376.315749
558001	205703.082677
559001	206029.667195
560001	206356.068770
561001	206682.289026
562001	207008.329960
563001	207334.191577
564001	207659.872439
565001	207985.368946
566001	208310.679256
567001	208635.804473
568001	208960.746528
569001	209285.506141
570001	209610.084986
571001	209934.481884
572001	210258.693145
573001	210582.719197
574001	210906.558979
575001	211230.213622
576001	211553.681046
577001	211876.963272
578001	212200.058426
579001	212522.967010
580001	212845.690097
581001	213168.224452
582001	213490.569238
583001	213812.726109
584001	214134.696260
585001	214456.479955
586001	214778.075591
587001	215099.482119
588001	215420.697046
589001	215741.723942
590001	216062.561267
591001	216383.208873
592001	216703.664754
593001	217023.930161
594001	217344.005603
595001	217663.888900
596001	217983.579156
597001	218303.077128
598001	218622.382947
599001	218941.496177
600001	219260.417241
601001	219579.145932
602001	219897.679085
603001	220216.016164
604001	220534.159879
605001	220852.108801
606001	221169.865086
607001	221487.430525
608001	221804.800974
609001	222121.977346
610001	222438.958123
611001	222755.741953
612001	223072.331392
613001	223388.722447
614001	223704.916911
615001	224020.915081
616001	224336.716152
617001	224652.318886
618001	224967.721808
619001	225282.926263
620001	225597.934020
621001	225912.744766
622001	226227.359766
623001	226541.779128
624001	226855.999006
625001	227170.021011
626001	227483.845415
627001	227797.471206
628001	228110.895118
629001	228424.119352
630001	228737.141577
631001	229049.963329
632001	229362.586013
633001	229675.006909
634001	229987.225455
635001	230299.241263
636001	230611.055156
637001	230922.668059
638001	231234.078629
639001	231545.286718
640001	231856.292054
641001	232167.093572
642001	232477.690201
643001	232788.082250
644001	233098.266762
645001	233408.247652
646001	233718.024627
647001	234027.594983
648001	234336.960562
649001	234646.118852
650001	234955.067436
651001	235263.807028
652001	235572.340460
653001	235880.664940
654001	236188.782547
655001	236496.691319
656001	236804.389826
657001	237111.878333
658001	237419.157863
659001	237726.225881
660001	238033.086073
661001	238339.736877
662001	238646.177508
663001	238952.410356
664001	239258.431327
665001	239564.239207
666001	239869.834088
667001	240175.217185
668001	240480.388686
669001	240785.349338
670001	241090.097300
671001	241394.631410
672001	241698.951950
673001	242003.059846
674001	242306.953048
675001	242610.632858
676001	242914.099900
677001	243217.350259
678001	243520.383156
679001	243823.199542
680001	244125.798349
681001	244428.183374
682001	244730.350098
683001	245032.299185
684001	245334.031874
685001	245635.546884
686001	245936.840461
687001	246237.914854
688001	246538.769670
689001	246839.406812
690001	247139.823062
691001	247440.019370
692001	247739.997348
693001	248039.755223
694001	248339.293714
695001	248638.612254
696001	248937.710896
697001	249236.589022
698001	249535.241475
699001	249833.667776
700001	250131.868398
701001	250429.844772
702001	250727.598326
703001	251025.129884
704001	251322.437603
705001	251619.521092
706001	251916.379248
707001	252213.008170
708001	252509.412389
709001	252805.589598
710001	253101.542034
711001	253397.267985
712001	253692.765699
713001	253988.037723
714001	254283.080416
715001	254577.894493
716001	254872.481918
717001	255166.842660
718001	255460.973894
719001	255754.874062
720001	256048.541204
721001	256341.977177
722001	256635.181676
723001	256928.152568
724001	257220.888801
725001	257513.389227
726001	257805.655246
727001	258097.688358
728001	258389.489680
729001	258681.057705
730001	258972.391296
731001	259263.490972
732001	259554.355769
733001	259844.986245
734001	260135.383950
735001	260425.546330
736001	260715.473665
737001	261005.163900
738001	261294.616219
739001	261583.828824
740001	261872.804554
741001	262161.543091
742001	262450.043421
743001	262738.304282
744001	263026.328192
745001	263314.114578
746001	263601.663682
747001	263888.971495
748001	264176.037656
749001	264462.863395
750001	264749.446489
751001	265035.787318
752001	265321.888015
753001	265607.746710
754001	265893.361150
755001	266178.730215
756001	266463.856899
757001	266748.740802
758001	267033.379371
759001	267317.775855
760001	267601.922965
761001	267885.820066
762001	268169.471110
763001	268452.876108
764001	268736.030692
765001	269018.936236
766001	269301.593874
767001	269584.005099
768001	269866.168267
769001	270148.083290
770001	270429.750705
771001	270711.168029
772001	270992.335172
773001	271273.255045
774001	271553.924589
775001	271834.344504
776001	272114.512355
777001	272394.427453
778001	272674.088968
779001	272953.497596
780001	273232.656904
781001	273511.562771
782001	273790.214545
783001	274068.612341
784001	274346.753595
785001	274624.641154
786001	274902.274287
787001	275179.651541
788001	275456.772452
789001	275733.636675
790001	276010.243517
791001	276286.588435
792001	276562.674634
793001	276838.501862
794001	277114.067182
795001	277389.374797
796001	277664.424001
797001	277939.213871
798001	278213.741685
799001	278488.005241
800001	278762.004803
801001	279035.743346
802001	279309.220393
803001	279582.430570
804001	279855.375904
805001	280128.057582
806001	280400.478020
807001	280672.634091
808001	280944.525682
809001	281216.153847
810001	281487.515417
811001	281758.610097
812001	282029.436011
813001	282299.993254
814001	282570.280710
815001	282840.300087
816001	283110.051994
817001	283379.536135
818001	283648.750129
819001	283917.692406
820001	284186.365468
821001	284454.768394
822001	284722.900599
823001	284990.761294
824001	285258.349701
825001	285525.666145
826001	285792.706407
827001	286059.470210
828001	286325.956700
829001	286592.165593
830001	286858.099800
831001	287123.760834
832001	287389.144947
833001	287654.252994
834001	287919.081206
835001	288183.628708
836001	288447.897368
837001	288711.884219
838001	288975.586604
839001	289239.007956
840001	289502.149392
841001	289765.010070
842001	290027.593373
843001	290289.897467
844001	290551.921431
845001	290813.664164
846001	291075.125484
847001	291336.304715
848001	291597.199371
849001	291857.809092
850001	292118.135782
851001	292378.176301
852001	292637.931541
853001	292897.402351
854001	293156.584781
855001	293415.475946
856001	293674.076130
857001	293932.387306
858001	294190.405731
859001	294448.134966
860001	294705.572870
861001	294962.719726
862001	295219.574884
863001	295476.139134
864001	295732.412300
865001	295988.394095
866001	296244.082273
867001	296499.474978
868001	296754.572309
869001	297009.377175
870001	297263.889696
871001	297518.104902
872001	297772.020042
873001	298025.637968
874001	298278.962065
875001	298531.987114
876001	298784.713074
877001	299037.142531
878001	299289.269380
879001	299541.094159
880001	299792.615773
881001	300043.836903
882001	300294.756442
883001	300545.372676
884001	300795.684060
885001	301045.693498
886001	301295.400087
887001	301544.803674
888001	301793.903608
889001	302042.696354
890001	302291.181265
891001	302539.359628
892001	302787.230675
893001	303034.796596
894001	303282.055068
895001	303529.005327
896001	303775.648112
897001	304021.982327
898001	304268.007307
899001	304513.720043
900001	304759.118763
901001	305004.206615
902001	305248.983536
903001	305493.448228
904001	305737.599745
905001	305981.435117
906001	306224.957158
907001	306468.163582
908001	306711.056274
909001	306953.631581
910001	307195.887670
911001	307437.827018
912001	307679.449000
913001	307920.748983
914001	308161.727263
915001	308402.383295
916001	308642.718564
917001	308882.732990
918001	309122.425773
919001	309361.795892
920001	309600.840079
921001	309839.563443
922001	310077.964653
923001	310316.044863
924001	310553.802600
925001	310791.236423
926001	311028.343727
927001	311265.123764
928001	311501.571633
929001	311737.690751
930001	311973.481239
931001	312208.944378
932001	312444.078789
933001	312678.882647
934001	312913.356000
935001	313147.499062
936001	313381.309155
937001	313614.786382
938001	313847.931278
939001	314080.742235
940001	314313.219856
941001	314545.362275
942001	314777.166511
943001	315008.635499
944001	315239.765584
945001	315470.553314
946001	315701.001397
947001	315931.107420
948001	316160.871839
949001	316390.295469
950001	316619.375661
951001	316848.112306
952001	317076.507820
953001	317304.558473
954001	317532.265878
955001	317759.624911
956001	317986.638448
957001	318213.306313
958001	318439.626713
959001	318665.597538
960001	318891.219843
961001	319116.493425
962001	319341.419999
963001	319565.994189
964001	319790.218266
965001	320014.089101
966001	320237.607448
967001	320460.772499
968001	320683.585186
969001	320906.044249
