Signal handled: Interrupt.
1000	186659.880259
2000	354189.931312
3000	514505.556172
4000	670099.618913
5000	822194.824338
6000	971501.683488
7000	1118480.561611
8000	1263461.459636
9000	1406705.241677
10000	1548404.935300
11000	1688710.988165
12000	1827746.860136
13000	1965617.816942
14000	2102405.023503
15000	2238184.120787
16000	2373023.198487
17000	2506970.432867
18000	2640083.158220
19000	2772411.994731
20000	2904004.004458
21000	3034882.520303
22000	3165078.316558
23000	3294629.028783
24000	3423561.631887
25000	3551900.415157
26000	3679667.813574
27000	3806880.834934
28000	3933562.530266
29000	4059735.094963
30000	4185412.981120
31000	4310609.431424
32000	4435339.008846
33000	4559619.936345
34000	4683463.120233
35000	4806878.842217
36000	4929875.615698
37000	5052472.559399
38000	5174673.278692
39000	5296488.027079
40000	5417926.816599
41000	5538998.190595
42000	5659711.280926
43000	5780074.177595
44000	5900098.506629
45000	6019795.201578
46000	6139166.386829
47000	6258216.293062
48000	6376952.269209
49000	6495375.599918
50000	6613495.088631
51000	6731315.608128
52000	6848842.389724
53000	6966081.697407
54000	7083038.798363
55000	7199714.540866
56000	7316112.379372
57000	7432238.877653
58000	7548098.469077
59000	7663697.069272
60000	7779038.193478
61000	7894119.808074
62000	8008946.375633
63000	8123526.272450
64000	8237866.246364
65000	8351965.572032
66000	8465831.107403
67000	8579464.988354
68000	8692868.978261
69000	8806046.341167
70000	8918998.215161
71000	9031733.182823
72000	9144253.357969
73000	9256559.362411
74000	9368653.156427
75000	9480537.788497
76000	9592215.139441
77000	9703687.186398
78000	9814958.995554
79000	9926031.126206
80000	10036904.599147
81000	10147580.044665
82000	10258061.412910
83000	10368351.255345
84000	10478451.426183
85000	10588360.595265
86000	10698084.281714
87000	10807621.656827
88000	10916974.589917
89000	11026143.034572
90000	11135131.117106
91000	11243939.920295
92000	11352573.911046
93000	11461033.707495
94000	11569320.719714
95000	11677436.351494
96000	11785384.576929
97000	11893165.908437
98000	12000785.303093
99000	12108238.966062
100000	12215529.390589
101000	12322657.568699
102000	12429625.036443
103000	12536435.373652
104000	12643083.535448
105000	12749572.969324
106000	12855903.161290
107000	12962078.981526
108000	13068104.815927
109000	13173980.005129
110000	13279707.229288
111000	13385285.665949
112000	13490715.565789
113000	13595998.479160
114000	13701133.863355
115000	13806122.045174
116000	13910966.643569
117000	14015667.945063
118000	14120230.325122
119000	14224652.063241
120000	14328932.792910
121000	14433075.223039
122000	14537080.977909
123000	14640950.948369
124000	14744684.061255
125000	14848284.114499
126000	14951750.871810
127000	15055083.752508
128000	15158283.909227
129000	15261348.166346
130000	15364278.785537
131000	15467074.585526
132000	15569737.737608
133000	15672270.929593
134000	15774676.175000
135000	15876956.069343
136000	15979107.105838
137000	16081130.088344
138000	16183027.640953
139000	16284799.010812
140000	16386446.053244
141000	16487970.600352
142000	16589371.396538
143000	16690649.072956
144000	16791804.443030
145000	16892839.422334
146000	16993752.663156
147000	17094546.101697
148000	17195219.593733
149000	17295771.092710
150000	17396203.699229
151000	17496517.502682
152000	17596711.749667
153000	17696789.922261
154000	17796752.033120
155000	17896597.542706
156000	17996331.415700
157000	18095953.194836
158000	18195460.318025
159000	18294854.918081
160000	18394139.724798
161000	18493314.703169
162000	18592377.601030
163000	18691330.329087
164000	18790171.475482
165000	18888903.919680
166000	18987527.854803
167000	19086042.672799
168000	19184447.691754
169000	19282743.686727
170000	19380931.654174
171000	19479014.838229
172000	19576992.256720
173000	19674867.811865
174000	19772639.769734
175000	19870309.608215
176000	19967875.659954
177000	20065338.391098
178000	20162698.126995
179000	20259955.364750
180000	20357111.374813
181000	20454164.731724
182000	20551118.590922
183000	20647971.784714
184000	20744728.020778
185000	20841381.914806
186000	20937935.381009
187000	21034388.179243
188000	21130741.388094
189000	21226997.932139
190000	21323156.417995
191000	21419214.431491
192000	21515176.156297
193000	21611041.637765
194000	21706811.505294
195000	21802482.891096
196000	21898057.458502
197000	21993540.478316
198000	22088926.822163
199000	22184218.172927
200000	22279413.399298
201000	22374513.561573
202000	22469518.041245
203000	22564429.513013
204000	22659246.540018
205000	22753968.379683
206000	22848598.193203
207000	22943134.896923
208000	23037578.742386
209000	23131928.750008
210000	23226184.461243
211000	23320347.170388
212000	23414417.469864
213000	23508395.208651
214000	23602285.888147
215000	23696083.287620
216000	23789789.925184
217000	23883404.651624
218000	23976929.599347
219000	24070366.241280
220000	24163712.552042
221000	24256969.538655
222000	24350137.641810
223000	24443216.187402
224000	24536205.105492
225000	24629104.213325
226000	24721916.428868
227000	24814640.577826
228000	24907276.764294
229000	24999827.911594
230000	25092291.689871
231000	25184667.601828
232000	25276956.175731
233000	25369162.280930
234000	25461284.564552
235000	25553320.433707
236000	25645269.674358
237000	25737131.541892
238000	25828907.469876
239000	25920598.164081
240000	26012203.338091
241000	26103721.351911
242000	26195154.073235
243000	26286502.459290
244000	26377766.422931
245000	26468945.003232
246000	26560037.190001
247000	26651045.054854
248000	26741970.924799
249000	26832816.504983
250000	26923577.388131
251000	27014253.694601
252000	27104846.806111
253000	27195356.175158
254000	27285782.646405
255000	27376125.033861
256000	27466385.142977
257000	27556562.849588
258000	27646658.298478
259000	27736672.917806
260000	27826605.618049
261000	27916457.846631
262000	28006230.143103
263000	28095923.694900
264000	28185538.178853
265000	28275075.472709
266000	28364535.207612
267000	28453917.336450
268000	28543220.066328
269000	28632442.911155
270000	28721587.565803
271000	28810653.948996
272000	28899642.075207
273000	28988551.932873
274000	29077384.197657
275000	29166138.877758
276000	29254812.399548
277000	29343407.578172
278000	29431925.350027
279000	29520365.061788
280000	29608726.953635
281000	29697011.364465
282000	29785217.657306
283000	29873345.179351
284000	29961391.868690
285000	30049362.799201
286000	30137255.263256
287000	30225070.314262
288000	30312809.437671
289000	30400471.682760
290000	30488058.122227
291000	30575567.574202
292000	30663000.070895
293000	30750357.755574
294000	30837639.869144
295000	30924847.927009
296000	31011980.414972
297000	31099037.744940
298000	31186016.571072
299000	31272920.758102
300000	31359751.651166
301000	31446508.986724
302000	31533192.479337
303000	31619803.556135
304000	31706338.816526
305000	31792797.924202
306000	31879182.986570
307000	31965493.978949
308000	32051730.891027
309000	32137890.678486
310000	32223977.104458
311000	32309989.291349
312000	32395926.855833
313000	32481790.034877
314000	32567580.979052
315000	32653296.892818
316000	32738938.831276
317000	32824507.149424
318000	32910003.029208
319000	32995426.020755
320000	33080777.159007
321000	33166055.151593
322000	33251258.869383
323000	33336389.624954
324000	33421449.753968
325000	33506437.797492
326000	33591355.467025
327000	33676199.975096
328000	33760970.956420
329000	33845666.833974
330000	33930289.026718
331000	34014840.014914
332000	34099320.547765
333000	34183731.786878
334000	34268072.602751
335000	34352342.729099
336000	34436541.670141
337000	34520670.544566
338000	34604729.080417
339000	34688715.389714
340000	34772629.947546
341000	34856473.208840
342000	34940245.860144
343000	35023947.998197
344000	35107580.178516
345000	35191144.317242
346000	35274639.120334
347000	35358065.533397
348000	35441424.105795
349000	35524712.577954
350000	35607930.194625
351000	35691077.243834
352000	35774154.505554
353000	35857162.072752
354000	35940100.073415
355000	36022968.811366
356000	36105770.231385
357000	36188502.794294
358000	36271167.058221
359000	36353760.929332
360000	36436286.173463
361000	36518743.898936
362000	36601135.080555
363000	36683460.128433
364000	36765716.291022
365000	36847905.068833
366000	36930026.849382
367000	37012081.445961
368000	37094068.339661
369000	37175986.142435
370000	37257836.510808
371000	37339620.222634
372000	37421336.362780
373000	37502984.895272
374000	37584565.765559
375000	37666077.976094
376000	37747521.856452
377000	37828897.305733
378000	37910204.967691
379000	37991445.109924
380000	38072615.638641
381000	38153717.492583
382000	38234752.190622
383000	38315719.806138
384000	38396621.203162
385000	38477454.796255
386000	38558223.582254
387000	38638925.185431
388000	38719559.969568
389000	38800126.877172
390000	38880626.375418
391000	38961059.483677
392000	39041424.615330
393000	39121723.609105
394000	39201956.829028
395000	39282122.711807
396000	39362221.719769
397000	39442255.882484
398000	39522225.450479
399000	39602130.215516
400000	39681969.669214
401000	39761743.856038
402000	39841450.577305
403000	39921092.252507
404000	40000671.785634
405000	40080187.433718
406000	40159637.988453
407000	40239023.258032
408000	40318343.574414
409000	40397597.533067
410000	40476784.863123
411000	40555906.437686
412000	40634964.427582
413000	40713957.201294
414000	40792884.297989
415000	40871747.631322
416000	40950547.374287
417000	41029280.426896
418000	41107947.169819
419000	41186548.337390
420000	41265084.817772
421000	41343556.075708
422000	41421963.843846
423000	41500306.796620
424000	41578584.786006
425000	41656798.930971
426000	41734947.848007
427000	41813030.606093
428000	41891047.624764
429000	41969000.126795
430000	42046889.574703
431000	42124716.267697
432000	42202479.993658
433000	42280178.147981
434000	42357812.945045
435000	42435383.728524
436000	42512890.250292
437000	42590331.730188
438000	42667708.834932
439000	42745022.021499
440000	42822270.886818
441000	42899457.222580
442000	42976580.128550
443000	43053640.518205
444000	43130637.526502
445000	43207571.234287
446000	43284440.483084
447000	43361246.559755
448000	43437988.963888
449000	43514668.563325
450000	43591285.663578
451000	43667841.898692
452000	43744337.098040
453000	43820770.263865
454000	43897140.716794
455000	43973448.931169
456000	44049694.208483
457000	44125876.360575
458000	44201998.569528
459000	44278057.758577
460000	44354053.338427
461000	44429985.719387
462000	44505854.968456
463000	44581659.302337
464000	44657399.279426
465000	44733076.087393
466000	44808691.450551
467000	44884243.544736
468000	44959732.907454
469000	45035159.751038
470000	45110523.448060
471000	45185825.468497
472000	45261066.933360
473000	45336246.174505
474000	45411362.111605
475000	45486417.188491
476000	45561411.087287
477000	45636345.748265
478000	45711217.677374
479000	45786026.782467
480000	45860774.918065
481000	45935463.028164
482000	46010088.067695
483000	46084651.401247
484000	46159151.509711
485000	46233589.336237
486000	46307967.167875
487000	46382282.668282
488000	46456535.874952
489000	46530726.651682
490000	46604856.606097
491000	46678924.945441
492000	46752929.360909
493000	46826872.166481
494000	46900753.502803
495000	46974571.310531
496000	47048324.782318
497000	47122016.952132
498000	47195646.177482
499000	47269214.139968
500000	47342723.713923
501000	47416172.875800
502000	47489561.359909
503000	47562888.782275
504000	47636155.846369
505000	47709360.275137
506000	47782502.665623
507000	47855584.369248
508000	47928603.792701
509000	48001560.645872
510000	48074454.609355
511000	48147287.051309
512000	48220057.489130
513000	48292765.491702
514000	48365411.124963
515000	48437996.306370
516000	48510518.826299
517000	48582980.124157
518000	48655380.241102
519000	48727719.632939
520000	48799997.555670
521000	48872214.326889
522000	48944372.129834
523000	49016468.981973
524000	49088504.907606
525000	49160479.736015
526000	49232393.114676
527000	49304244.943514
528000	49376034.832984
529000	49447763.829377
530000	49519432.352847
531000	49591041.809153
532000	49662591.509478
533000	49734081.530749
534000	49805511.056150
535000	49876881.116739
536000	49948191.544549
537000	50019442.202578
538000	50090630.072813
539000	50161756.740151
540000	50232823.760555
541000	50303828.708084
542000	50374773.727452
543000	50445659.249557
544000	50516486.609930
545000	50587254.749938
546000	50657963.080978
547000	50728612.809023
548000	50799202.373598
549000	50869732.407710
550000	50940203.773980
551000	51010615.312441
552000	51080966.532418
553000	51151257.470296
554000	51221488.877039
555000	51291658.455317
556000	51361767.075678
557000	51431816.030419
558000	51501805.249780
559000	51571736.725234
560000	51641609.289139
561000	51711422.006417
562000	51781176.164987
563000	51850871.407719
564000	51920504.505668
565000	51990077.937216
566000	52059591.514941
567000	52129043.809770
568000	52198434.228267
569000	52267764.589110
570000	52337034.414989
571000	52406244.271784
572000	52475393.541608
573000	52544483.362779
574000	52613513.839834
575000	52682484.880547
576000	52751396.454087
577000	52820248.846344
578000	52889040.452583
579000	52957771.518926
580000	53026443.146667
581000	53095055.752524
582000	53163609.231320
583000	53232103.436738
584000	53300538.127344
585000	53368913.799019
586000	53437230.135852
587000	53505488.627464
588000	53573689.225447
589000	53641830.734558
590000	53709913.020744
591000	53777936.286140
592000	53845899.351305
593000	53913803.424514
594000	53981648.685217
595000	54049432.473062
596000	54117154.971712
597000	54184818.859445
598000	54252423.371094
599000	54319968.180739
600000	54387452.782577
601000	54454877.898938
602000	54522243.845423
603000	54589550.413402
604000	54656798.378961
605000	54723987.309037
606000	54791116.481451
607000	54858185.949481
608000	54925195.208645
609000	54992144.938391
610000	55059034.008120
611000	55125864.307287
612000	55192634.126558
613000	55259344.380719
614000	55325995.031281
615000	55392585.669534
616000	55459115.707395
617000	55525587.728473
618000	55592000.983965
619000	55658355.610716
620000	55724651.059814
621000	55790887.628655
622000	55857064.562853
623000	55923181.220274
624000	55989238.510424
625000	56055236.771514
626000	56121174.368607
627000	56187052.138391
628000	56252871.420664
629000	56318631.309937
630000	56384331.627116
631000	56449972.672726
632000	56515554.738118
633000	56581077.607131
634000	56646543.767447
635000	56711952.455485
636000	56777303.355901
637000	56842594.182752
638000	56907826.764533
639000	56972999.717769
640000	57038112.573796
641000	57103165.062029
642000	57168158.853601
643000	57233094.290536
644000	57297970.142137
645000	57362786.530675
646000	57427543.249220
647000	57492240.112145
648000	57556878.310914
649000	57621459.552574
650000	57685981.918933
651000	57750445.258808
652000	57814849.715047
653000	57879196.157893
654000	57943483.905014
655000	58007714.305731
656000	58071887.214378
657000	58136000.390515
658000	58200054.158628
659000	58264047.346744
660000	58327982.134625
661000	58391858.847306
662000	58455676.370701
663000	58519433.635547
664000	58583132.040888
665000	58646772.473178
666000	58710353.975774
667000	58773875.381527
668000	58837338.779751
669000	58900743.497624
670000	58964088.392153
671000	59027373.665863
672000	59090600.514849
673000	59153769.393028
674000	59216880.309131
675000	59279933.267426
676000	59342927.257631
677000	59405863.835855
678000	59468741.642858
679000	59531559.392202
680000	59594317.524179
681000	59657015.920013
682000	59719654.957937
683000	59782234.348030
684000	59844754.125453
685000	59907214.852824
686000	59969616.706911
687000	60031957.899383
688000	60094238.306248
689000	60156459.097219
690000	60218619.735804
691000	60280722.359943
692000	60342766.460648
693000	60404751.867163
694000	60466676.487209
695000	60528541.230826
696000	60590346.664012
697000	60652092.589980
698000	60713779.881234
699000	60775407.616049
700000	60836975.164047
701000	60898483.678844
702000	60959932.653004
703000	61021322.594612
704000	61082652.832472
705000	61143923.003304
706000	61205135.870981
707000	61266290.553868
708000	61327386.397151
709000	61388422.515229
710000	61449396.640977
711000	61510310.341880
712000	61571164.190333
713000	61631958.293592
714000	61692692.447974
715000	61753368.497539
716000	61813986.683215
717000	61874545.702776
718000	61935045.660752
719000	61995486.186148
720000	62055868.614692
721000	62116191.146778
722000	62176454.910868
723000	62236659.592276
724000	62296806.139467
725000	62356893.862762
726000	62416921.355223
727000	62476889.010037
728000	62536796.753808
729000	62596644.527709
730000	62656432.954031
731000	62716161.823001
732000	62775832.244638
733000	62835444.327096
734000	62894996.764414
735000	62954489.210239
736000	63013922.102152
737000	63073295.394529
738000	63132611.138945
739000	63191868.402173
740000	63251065.928925
741000	63310203.544379
742000	63369280.118172
743000	63428297.239879
744000	63487254.129624
745000	63546152.186765
746000	63604991.222910
747000	63663770.966281
748000	63722491.534239
749000	63781153.284866
750000	63839756.978317
751000	63898301.153622
752000	63956786.124735
753000	64015211.032598
754000	64073577.294413
755000	64131884.140927
756000	64190132.223055
757000	64248321.655733
758000	64306452.834281
759000	64364525.779323
760000	64422540.495356
761000	64480495.423187
762000	64538391.509316
763000	64596228.159472
764000	64654005.225797
765000	64711720.614394
766000	64769375.505614
767000	64826969.056928
768000	64884502.150305
769000	64941975.941992
770000	64999390.703753
771000	65056744.975970
772000	65114038.698085
773000	65171272.219453
774000	65228445.734939
775000	65285559.120142
776000	65342612.780366
777000	65399607.562472
778000	65456542.857210
779000	65513418.526187
780000	65570233.526420
781000	65626987.382288
782000	65683680.860404
783000	65740313.897564
784000	65796886.648298
785000	65853400.036038
786000	65909854.189824
787000	65966247.969892
788000	66022581.505209
789000	66078856.301572
790000	66135070.802362
791000	66191224.581099
792000	66247317.802647
793000	66303349.491231
794000	66359320.284497
795000	66415231.207693
796000	66471082.254827
797000	66526872.516964
798000	66582602.243062
799000	66638271.879104
800000	66693880.696713
801000	66749427.840723
802000	66804914.579545
803000	66860341.276144
804000	66915708.261886
805000	66971014.427294
806000	67026261.410007
807000	67081447.986401
808000	67136574.607191
809000	67191642.541438
810000	67246648.312420
811000	67301593.171410
812000	67356477.008853
813000	67411301.428698
814000	67466063.999838
815000	67520766.048647
816000	67575408.348070
817000	67629992.153808
818000	67684516.985524
819000	67738980.861004
820000	67793382.242248
821000	67847721.557275
822000	67901998.774189
823000	67956214.555456
824000	68010369.316216
825000	68064465.961733
826000	68118502.686492
827000	68172478.169840
828000	68226392.868077
829000	68280247.151694
830000	68334040.844950
831000	68387776.307064
832000	68441450.755627
833000	68495065.194559
834000	68548619.173283
835000	68602112.012902
836000	68655543.139827
837000	68708914.438432
838000	68762225.351830
839000	68815474.373337
840000	68868662.049526
841000	68921789.913505
842000	68974857.303878
843000	69027864.267925
844000	69080809.820747
845000	69133692.400900
846000	69186512.533339
847000	69239270.851898
848000	69291967.452681
849000	69344602.209477
850000	69397175.731211
851000	69449687.274753
852000	69502138.094036
853000	69554528.310049
854000	69606857.360236
855000	69659124.797178
856000	69711330.543394
857000	69763474.006125
858000	69815557.213320
859000	69867580.562601
860000	69919543.243936
861000	69971443.566675
862000	70023280.812206
863000	70075057.425691
864000	70126772.603040
865000	70178426.559685
866000	70230017.394520
867000	70281544.851681
868000	70333011.742041
869000	70384418.422179
870000	70435763.546344
871000	70487045.385006
872000	70538263.761574
873000	70589418.565568
874000	70640510.528251
875000	70691540.202100
876000	70742506.186908
