Signal handled: Interrupt.
1000	173695.212236
2000	328076.249589
3000	475160.495623
4000	617506.785624
5000	756322.004863
6000	892315.466619
7000	1025954.200829
8000	1157590.253842
9000	1287471.682272
10000	1415804.217290
11000	1542735.663339
12000	1668387.771866
13000	1792863.927033
14000	1916249.300138
15000	2038621.444534
16000	2160043.634513
17000	2280579.617940
18000	2400279.185306
19000	2519184.111470
20000	2637336.714201
21000	2754780.245346
22000	2871547.317087
23000	2987663.116960
24000	3103156.965408
25000	3218055.248862
26000	3332380.026103
27000	3446147.297435
28000	3559376.033013
29000	3672088.750953
30000	3784306.080239
31000	3896046.271544
32000	4007325.608491
33000	4118153.330274
34000	4228540.962464
35000	4338506.200882
36000	4448056.802260
37000	4557206.479593
38000	4665965.593814
39000	4774341.958289
40000	4882344.566881
41000	4989982.821533
42000	5097264.473320
43000	5204198.622559
44000	5310797.045157
45000	5417065.987911
46000	5523013.864142
47000	5628647.804699
48000	5733971.592566
49000	5838988.502505
50000	5943704.870490
51000	6048125.236116
52000	6152253.709776
53000	6256095.424063
54000	6359653.252329
55000	6462932.893070
56000	6565940.831178
57000	6668680.642021
58000	6771161.642308
59000	6873385.323122
60000	6975353.017940
61000	7077068.070598
62000	7178541.231300
63000	7279774.087468
64000	7380769.498513
65000	7481529.304142
66000	7582060.477450
67000	7682367.379961
68000	7782452.050530
69000	7882316.318611
70000	7981960.731178
71000	8081387.939555
72000	8180599.957828
73000	8279600.267755
74000	8378397.465713
75000	8476988.201454
76000	8575375.292143
77000	8673561.328546
78000	8771551.057005
79000	8869344.660136
80000	8966942.875791
81000	9064351.474496
82000	9161571.439402
83000	9258604.458346
84000	9355448.169095
85000	9452105.852596
86000	9548581.318192
87000	9644875.518100
88000	9740990.734231
89000	9836929.826303
90000	9932692.154244
91000	10028279.926832
92000	10123698.236656
93000	10218947.883851
94000	10314030.657782
95000	10408946.760563
96000	10503698.256849
97000	10598287.342683
98000	10692716.492195
99000	10786986.561876
100000	10881098.685158
101000	10975053.842990
102000	11068853.300583
103000	11162499.507647
104000	11255995.188231
105000	11349339.704575
106000	11442536.321018
107000	11535583.802014
108000	11628484.538836
109000	11721240.348768
110000	11813851.618668
111000	11906318.105067
112000	11998640.152304
113000	12090818.453618
114000	12182853.961782
115000	12274746.201442
116000	12366495.655085
117000	12458104.984524
118000	12549576.175405
119000	12640907.834048
120000	12732100.444245
121000	12823158.792676
122000	12914082.223667
123000	13004872.273758
124000	13095531.524637
125000	13186057.379422
126000	13276452.664700
127000	13366719.728311
128000	13456857.178415
129000	13546864.147102
130000	13636744.514900
131000	13726499.578836
132000	13816129.027030
133000	13905634.475883
134000	13995019.209876
135000	14084281.538083
136000	14173420.119311
137000	14262435.143489
138000	14351330.282286
139000	14440106.166086
140000	14528763.937656
141000	14617304.558529
142000	14705726.547093
143000	14794030.757123
144000	14882217.713294
145000	14970289.707955
146000	15058247.694657
147000	15146091.620876
148000	15233821.554231
149000	15321440.600576
150000	15408947.937893
151000	15496343.187751
152000	15583627.114747
153000	15670798.556516
154000	15757858.831475
155000	15844806.849013
156000	15931644.986845
157000	16018375.636959
158000	16104997.777889
159000	16191512.137157
160000	16277919.328521
161000	16364221.162884
162000	16450416.568328
163000	16536508.120447
164000	16622493.358796
165000	16708375.076060
166000	16794155.372625
167000	16879832.419202
168000	16965408.568529
169000	17050880.040286
170000	17136246.654418
171000	17221511.790051
172000	17306676.295027
173000	17391739.159185
174000	17476702.930079
175000	17561566.245331
176000	17646329.924563
177000	17730995.767895
178000	17815563.342969
179000	17900032.958407
180000	17984406.067988
181000	18068682.974120
182000	18152862.160349
183000	18236945.237727
184000	18320933.810361
185000	18404828.645857
186000	18488628.162940
187000	18572334.375621
188000	18655948.000927
189000	18739466.888698
190000	18822891.815138
191000	18906222.735482
192000	18989462.102734
193000	19072607.430812
194000	19155659.825867
195000	19238619.546222
196000	19321488.315275
197000	19404266.162335
198000	19486952.920055
199000	19569549.213505
200000	19652055.721475
201000	19734473.034709
202000	19816801.613543
203000	19899040.782452
204000	19981190.709251
205000	20063252.834080
206000	20145226.847900
207000	20227112.277788
208000	20308910.437373
209000	20390622.143287
210000	20472247.310766
211000	20553786.238352
212000	20635241.263481
213000	20716611.926065
214000	20797897.527705
215000	20879097.264500
216000	20960212.048469
217000	21041240.586787
218000	21122185.083509
219000	21203047.365940
220000	21283825.496769
221000	21364519.297225
222000	21445129.821002
223000	21525656.904113
224000	21606100.597353
225000	21686460.442449
226000	21766737.659813
227000	21846932.689810
228000	21927045.435705
229000	22007077.350756
230000	22087027.351241
231000	22166894.783250
232000	22246682.635212
233000	22326389.716346
234000	22406018.514848
235000	22485567.259547
236000	22565037.441189
237000	22644426.232967
238000	22723733.761303
239000	22802962.948714
240000	22882113.110019
241000	22961186.456636
242000	23040182.519076
243000	23119101.185681
244000	23197941.179716
245000	23276702.890654
246000	23355387.225154
247000	23433995.172318
248000	23512526.673018
249000	23590981.365627
250000	23669360.528549
251000	23747663.001210
252000	23825889.430664
253000	23904040.598006
254000	23982116.274809
255000	24060116.306029
256000	24138042.557278
257000	24215894.470881
258000	24293669.978340
259000	24371371.376704
260000	24448998.743801
261000	24526552.712337
262000	24604032.817921
263000	24681438.319994
264000	24758770.974178
265000	24836029.866005
266000	24913216.390075
267000	24990330.172924
268000	25067370.969444
269000	25144339.447605
270000	25221235.197206
271000	25298058.215130
272000	25374808.712366
273000	25451486.854960
274000	25528092.380727
275000	25604626.952726
276000	25681090.801595
277000	25757481.194970
278000	25833799.732606
279000	25910046.947466
280000	25986222.874235
281000	26062327.851414
282000	26138361.296190
283000	26214324.104909
284000	26290214.920126
285000	26366034.284636
286000	26441784.395870
287000	26517465.975482
288000	26593079.058317
289000	26668622.588141
290000	26744098.640592
291000	26819504.270163
292000	26894838.689674
293000	26970103.842534
294000	27045301.520735
295000	27120432.490771
296000	27195494.551642
297000	27270486.962889
298000	27345409.428763
299000	27420263.536047
300000	27495050.314187
301000	27569771.630881
302000	27644425.017483
303000	27719008.948868
304000	27793524.699034
305000	27867973.467497
306000	27942354.546826
307000	28016669.722833
308000	28090918.342437
309000	28165099.718398
310000	28239213.626934
311000	28313262.241233
312000	28387247.607293
313000	28461167.014295
314000	28535020.682560
315000	28608808.047024
316000	28682527.703213
317000	28756181.621381
318000	28829770.736361
319000	28903295.749892
320000	28976756.973442
321000	29050152.572885
322000	29123484.637008
323000	29196754.368217
324000	29269960.621210
325000	29343103.192059
326000	29416180.432925
327000	29489194.378018
328000	29562142.568877
329000	29635027.576773
330000	29707848.641943
331000	29780605.335952
332000	29853297.101572
333000	29925925.974250
334000	29998488.766226
335000	30070988.655166
336000	30143425.208279
337000	30215799.513614
338000	30288112.700017
339000	30360363.037643
340000	30432551.046664
341000	30504675.727216
342000	30576737.771527
343000	30648737.599912
344000	30720673.844517
345000	30792547.741082
346000	30864360.367625
347000	30936110.645705
348000	31007797.812092
349000	31079421.458626
350000	31150982.098754
351000	31222480.765090
352000	31293917.087392
353000	31365291.555809
354000	31436604.824664
355000	31507856.195835
356000	31579046.447409
357000	31650175.632927
358000	31721243.394284
359000	31792250.821229
360000	31863199.851758
361000	31934088.213636
362000	32004914.896313
363000	32075681.232014
364000	32146388.681296
365000	32217036.011639
366000	32287624.215402
367000	32358152.895390
368000	32428620.159765
369000	32499027.471801
370000	32569374.098811
371000	32639661.545845
372000	32709889.723195
373000	32780057.825577
374000	32850165.763381
375000	32920213.121988
376000	32990201.028952
377000	33060129.395812
378000	33129996.126688
379000	33199803.603086
380000	33269552.564371
381000	33339241.651899
382000	33408871.937035
383000	33478444.604966
384000	33547958.715579
385000	33617414.829687
386000	33686811.476038
387000	33756148.236879
388000	33825426.307231
389000	33894644.930868
390000	33963805.428172
391000	34032907.092349
392000	34101950.892399
393000	34170937.298041
394000	34239865.529964
395000	34308735.101852
396000	34377546.936635
397000	34446301.455261
398000	34514999.297971
399000	34583639.766728
400000	34652222.644670
401000	34720746.426383
402000	34789212.220509
403000	34857619.346357
404000	34925968.938191
405000	34994260.973570
406000	35062495.788929
407000	35130673.449400
408000	35198792.336654
409000	35266853.864716
410000	35334857.861436
411000	35402803.985111
412000	35470693.587756
413000	35538526.310165
414000	35606301.154026
415000	35674018.526692
416000	35741680.203545
417000	35809284.102353
418000	35876831.764860
419000	35944322.823309
420000	36011757.636529
421000	36079137.237253
422000	36146460.655551
423000	36213727.430409
424000	36280936.402547
425000	36348089.975522
426000	36415188.603479
427000	36482231.705282
428000	36549220.141603
429000	36616153.050115
430000	36683031.091444
431000	36749853.957667
432000	36816622.039638
433000	36883334.776415
434000	36949992.860858
435000	37016595.528016
436000	37083144.297776
437000	37149638.125780
438000	37216076.957416
439000	37282460.589071
440000	37348789.393860
441000	37415062.254999
442000	37481279.526246
443000	37547441.577687
444000	37613549.146567
445000	37679602.343796
446000	37745599.960449
447000	37811542.379832
448000	37877430.009181
449000	37943264.636469
450000	38009045.925194
451000	38074772.668542
452000	38140445.692207
453000	38206063.212837
454000	38271625.941281
455000	38337134.228885
456000	38402588.451977
457000	38467987.931053
458000	38533334.395312
459000	38598627.721579
460000	38663867.716980
461000	38729056.234266
462000	38794192.336673
463000	38859273.895330
464000	38924302.690984
465000	38989279.461862
466000	39054202.701274
467000	39119071.797852
468000	39183887.797181
469000	39248650.063989
470000	39313359.356004
471000	39378015.972375
472000	39442619.418218
473000	39507169.836278
474000	39571666.720081
475000	39636110.987522
476000	39700502.781485
477000	39764840.208990
478000	39829123.319713
479000	39893352.653097
480000	39957528.174166
481000	40021651.544770
482000	40085722.847180
483000	40149741.588391
484000	40213706.585054
485000	40277619.550651
486000	40341480.963103
487000	40405289.313539
488000	40469045.362835
489000	40532749.600295
490000	40596401.635161
491000	40660001.224552
492000	40723549.176703
493000	40787044.805224
494000	40850486.784634
495000	40913875.961545
496000	40977211.821356
497000	41040495.673454
498000	41103727.280625
499000	41166906.592594
500000	41230033.132744
501000	41293107.882082
502000	41356131.107320
503000	41419102.349853
504000	41482021.150938
505000	41544888.538884
506000	41607704.987730
507000	41670469.117466
508000	41733181.558266
509000	41795843.531929
510000	41858454.953357
511000	41921014.303255
512000	41983521.057488
513000	42045977.028916
514000	42108381.609122
515000	42170734.864813
516000	42233036.498763
517000	42295286.686582
518000	42357485.900386
519000	42419633.757337
520000	42481729.151493
521000	42543773.414218
522000	42605766.646883
523000	42667708.098831
524000	42729598.236640
525000	42791435.709686
526000	42853222.158013
527000	42914957.693334
528000	42976641.911947
529000	43038274.913798
530000	43099856.729759
531000	43161388.022302
532000	43222867.224153
533000	43284293.989571
534000	43345669.353680
535000	43406993.787125
536000	43468268.236730
537000	43529492.435889
538000	43590664.847521
539000	43651784.814014
540000	43712853.986981
541000	43773871.367162
542000	43834837.392746
543000	43895753.837353
544000	43956618.744067
545000	44017433.150471
546000	44078197.759765
547000	44138912.349239
548000	44199577.526002
549000	44260192.924384
550000	44320758.057085
551000	44381273.239885
552000	44441737.345239
553000	44502150.689510
554000	44562513.498192
555000	44622824.235506
556000	44683084.411110
557000	44743294.478930
558000	44803451.815257
559000	44863558.864061
560000	44923614.639182
561000	44983619.536654
562000	45043574.404217
563000	45103479.641818
564000	45163334.412296
565000	45223141.660256
566000	45282899.289990
567000	45342605.188237
568000	45402260.989575
569000	45461866.505114
570000	45521422.377882
571000	45580928.237018
572000	45640384.380298
573000	45699790.518390
574000	45759145.587914
575000	45818451.485868
576000	45877709.086273
577000	45936918.351583
578000	45996077.787129
579000	46055187.850377
580000	46114247.285913
581000	46173256.087791
582000	46232215.287921
583000	46291124.282809
584000	46349984.099363
585000	46408795.030899
586000	46467556.555423
587000	46526269.065564
588000	46584933.690597
589000	46643548.915305
590000	46702116.051866
591000	46760634.954509
592000	46819106.217045
593000	46877528.717285
594000	46935902.547366
595000	46994228.015378
596000	47052505.260486
597000	47110734.019356
598000	47168914.355164
599000	47227046.137351
600000	47285130.206232
601000	47343165.353617
602000	47401152.866429
603000	47459092.602960
604000	47516984.067554
605000	47574825.713120
606000	47632617.975583
607000	47690361.622571
608000	47748056.285052
609000	47805702.772901
610000	47863300.518274
611000	47920850.831601
612000	47978352.281393
613000	48035805.336323
614000	48093209.955435
615000	48150565.512786
616000	48207871.943859
617000	48265129.750829
618000	48322338.392186
619000	48379498.623717
620000	48436611.964195
621000	48493678.330397
622000	48550696.936599
623000	48607667.603406
624000	48664590.080779
625000	48721464.683649
626000	48778290.705032
627000	48835068.224823
628000	48891798.201999
629000	48948479.883400
630000	49005113.259194
631000	49061697.436078
632000	49118233.499990
633000	49174721.972996
634000	49231160.924832
635000	49287552.257789
636000	49343895.814831
637000	49400190.246124
638000	49456436.859025
639000	49512635.495574
640000	49568786.478573
641000	49624889.534103
642000	49680943.995684
643000	49736950.049276
644000	49792908.780732
645000	49848820.470793
646000	49904685.151159
647000	49960501.692572
648000	50016268.433298
649000	50071985.819091
650000	50127653.710109
651000	50183273.535353
652000	50238844.586150
653000	50294367.684490
654000	50349843.663636
655000	50405272.799058
656000	50460653.764716
657000	50515987.811767
658000	50571275.290751
659000	50626516.168567
660000	50681709.723992
661000	50736855.194222
662000	50791952.931355
663000	50847003.390619
664000	50902007.352034
665000	50956963.299900
666000	51011872.271451
667000	51066732.840070
668000	51121546.168649
669000	51176311.823546
670000	51231030.004807
671000	51285700.651393
672000	51340323.420232
673000	51394897.841661
674000	51449424.523166
675000	51503903.774876
676000	51558335.288970
677000	51612719.434583
678000	51667055.627085
679000	51721343.488493
680000	51775583.881785
681000	51829776.832825
682000	51883924.051300
683000	51938023.522889
684000	51992075.045132
685000	52046080.283628
686000	52100038.131459
687000	52153950.233097
688000	52207814.574252
689000	52261631.949712
690000	52315400.781343
691000	52369122.964747
692000	52422797.259081
693000	52476423.914552
694000	52530003.546261
695000	52583534.543899
696000	52637017.332516
697000	52690452.572869
698000	52743840.635424
699000	52797182.703624
700000	52850477.755951
701000	52903726.427147
702000	52956927.578522
703000	53010080.376060
704000	53063185.480637
705000	53116243.124141
706000	53169254.189252
707000	53222219.516282
708000	53275138.352896
709000	53328009.752119
710000	53380833.360845
711000	53433609.627094
712000	53486339.354969
713000	53539021.775282
714000	53591656.504276
715000	53644242.459000
716000	53696780.695839
717000	53749272.025107
718000	53801716.265324
719000	53854114.028899
720000	53906465.614327
721000	53958770.745521
722000	54011029.452582
723000	54063240.646789
724000	54115404.967635
725000	54167523.374572
726000	54219595.115946
727000	54271620.341699
728000	54323599.440019
729000	54375531.518923
730000	54427416.672920
731000	54479254.453344
732000	54531045.543103
733000	54582790.414413
734000	54634489.084990
735000	54686140.584137
736000	54737744.717521
737000	54789302.863131
738000	54840814.606888
739000	54892279.886937
740000	54943698.401341
741000	54995069.895277
742000	55046395.389765
743000	55097674.137757
744000	55148906.359330
745000	55200091.438541
746000	55251229.321816
747000	55302320.095030
748000	55353363.562755
749000	55404359.879139
750000	55455310.046126
751000	55506213.393761
752000	55557068.897239
753000	55607877.698524
754000	55658639.622960
755000	55709355.886713
756000	55760026.281161
757000	55810651.157286
758000	55861230.199727
759000	55911762.556419
760000	55962248.202833
761000	56012687.899487
762000	56063081.444192
763000	56113429.010175
764000	56163730.377540
765000	56213985.221350
766000	56264193.976611
767000	56314356.782996
768000	56364473.959224
769000	56414544.592063
770000	56464568.532386
771000	56514545.037415
772000	56564474.077800
773000	56614356.699964
774000	56664193.392982
775000	56713984.588269
776000	56763729.520826
777000	56813427.527240
778000	56863079.556028
779000	56912685.574881
780000	56962245.431202
781000	57011758.722697
782000	57061225.823555
783000	57110646.696098
784000	57160021.961459
785000	57209351.830583
786000	57258634.533235
787000	57307871.246250
788000	57357060.860786
789000	57406204.669093
790000	57455303.296986
791000	57504354.297615
792000	57553359.124772
793000	57602317.136823
794000	57651228.278041
795000	57700091.963807
796000	57748909.153874
797000	57797678.927398
798000	57846402.073499
799000	57895078.986811
800000	57943709.136755
801000	57992293.081013
802000	58040831.252371
803000	58089322.370491
804000	58137766.933337
805000	58186164.829452
806000	58234516.407827
807000	58282821.385161
808000	58331079.947820
809000	58379292.035134
810000	58427457.105770
811000	58475575.838345
812000	58523648.590661
813000	58571674.189757
814000	58619653.107976
815000	58667585.041929
816000	58715468.694972
817000	58763304.501145
818000	58811093.819677
819000	58858837.736015
820000	58906535.233111
821000	58954186.067151
822000	59001790.883129
823000	59049348.949419
824000	59096859.648591
825000	59144323.212252
826000	59191740.007421
827000	59239109.494503
828000	59286431.654334
829000	59333706.772890
830000	59380935.276606
831000	59428116.571706
832000	59475251.857649
833000	59522340.596392
834000	59569381.621808
835000	59616375.234195
836000	59663321.606804
837000	59710222.203899
838000	59757077.830917
839000	59803886.600007
840000	59850648.672100
841000	59897365.187591
842000	59944035.042511
843000	59990656.981401
844000	60037231.556016
845000	60083759.499122
846000	60130240.596879
847000	60176674.994917
848000	60223063.097762
849000	60269403.648035
850000	60315698.199344
851000	60361946.146736
852000	60408147.017757
853000	60454301.708742
854000	60500409.852121
855000	60546471.824087
856000	60592486.989999
857000	60638455.689915
858000	60684379.248484
859000	60730257.383333
860000	60776088.775413
861000	60821872.706384
862000	60867610.190840
863000	60913300.684475
864000	60958945.287351
865000	61004543.089806
866000	61050093.313146
867000	61095595.914592
868000	61141050.917450
869000	61186457.601575
870000	61231817.464693
871000	61277131.414501
872000	61322398.372171
873000	61367617.761727
874000	61412791.332604
875000	61457918.423657
876000	61502998.439327
877000	61548031.793707
