Signal handled: Interrupt.
1	1.000000
1001	43.190126
2001	61.227227
3001	75.080010
4001	86.749652
5001	97.032959
6001	106.328441
7001	114.876672
8001	122.831176
9001	130.304907
10001	137.372680
11001	144.101277
12001	150.532982
13001	156.703779
14001	162.635583
15001	168.357390
16001	173.890963
17001	179.252465
18001	184.460291
19001	189.522486
20001	194.450453
21001	199.255009
22001	203.942055
23001	208.526198
24001	213.014014
25001	217.409255
26001	221.715489
27001	225.938349
28001	230.085110
29001	234.156480
30001	238.158742
31001	242.097305
32001	245.974787
33001	249.796532
34001	253.561902
35001	257.270323
36001	260.922337
37001	264.523459
38001	268.074485
39001	271.575088
40001	275.030438
41001	278.442328
42001	281.815951
43001	285.150661
44001	288.447405
45001	291.706572
46001	294.930400
47001	298.119129
48001	301.273980
49001	304.397792
50001	307.490243
51001	310.551038
52001	313.581187
53001	316.584224
54001	319.558614
55001	322.503672
56001	325.419759
57001	328.311129
58001	331.176934
59001	334.019543
60001	336.840311
61001	339.637231
62001	342.410062
63001	345.160743
64001	347.888331
65001	350.591576
66001	353.273252
67001	355.934976
68001	358.574758
69001	361.193753
70001	363.792166
71001	366.371975
72001	368.934733
73001	371.477026
74001	373.998982
75001	376.504215
76001	378.993000
77001	381.464764
78001	383.919746
79001	386.359239
80001	388.783565
81001	391.191942
82001	393.585857
83001	395.965349
84001	398.331113
85001	400.682541
86001	403.019683
87001	405.344295
88001	407.654018
89001	409.949979
90001	412.231696
91001	414.501798
92001	416.760122
93001	419.007454
94001	421.241179
95001	423.462303
96001	425.672947
97001	427.874489
98001	430.066307
99001	432.247696
100001	434.418566
101001	436.579304
102001	438.730988
103001	440.873942
104001	443.007389
105001	445.129454
106001	447.240115
107001	449.341418
108001	451.433353
109001	453.515443
110001	455.588260
111001	457.652549
112001	459.707193
113001	461.752131
114001	463.786983
115001	465.813616
116001	467.831513
117001	469.839444
118001	471.839161
119001	473.831034
120001	475.815353
121001	477.793036
122001	479.763131
123001	481.725288
124001	483.679397
125001	485.624689
126001	487.560725
127001	489.488546
128001	491.409164
129001	493.323158
130001	495.231520
131001	497.133401
132001	499.026971
133001	500.913220
134001	502.792328
135001	504.663852
136001	506.528567
137001	508.385934
138001	510.236118
139001	512.078891
140001	513.914086
141001	515.742374
142001	517.563025
143001	519.378003
144001	521.186082
145001	522.987142
146001	524.781583
147001	526.569698
148001	528.352228
149001	530.129278
150001	531.901279
151001	533.666514
152001	535.424771
153001	537.178092
154001	538.926035
155001	540.669693
156001	542.409029
157001	544.141849
158001	545.869351
159001	547.592599
160001	549.310809
161001	551.022601
162001	552.728298
163001	554.428437
164001	556.123514
165001	557.813652
166001	559.499543
167001	561.180848
168001	562.857711
169001	564.529424
170001	566.196447
171001	567.858009
172001	569.514751
173001	571.166456
174001	572.812417
175001	574.453399
176001	576.089719
177001	577.721401
178001	579.348518
179001	580.970656
180001	582.587683
181001	584.199494
182001	585.806237
183001	587.408085
184001	589.004109
185001	590.595448
186001	592.182651
187001	593.764954
188001	595.343575
189001	596.917878
190001	598.488034
191001	600.054073
192001	601.616400
193001	603.174796
194001	604.729341
195001	606.279559
196001	607.825742
197001	609.368550
198001	610.908183
199001	612.443103
200001	613.973955
201001	615.501681
202001	617.025424
203001	618.545854
204001	620.062042
205001	621.574728
206001	623.084458
207001	624.591082
208001	626.094406
209001	627.593985
210001	629.089154
211001	630.580184
212001	632.067480
213001	633.550986
214001	635.031830
215001	636.509363
216001	637.983468
217001	639.453724
218001	640.919922
219001	642.381955
220001	643.839876
221001	645.295095
222001	646.748115
223001	648.197876
224001	649.644664
225001	651.088652
226001	652.528584
227001	653.964773
228001	655.397865
229001	656.828207
230001	658.255994
231001	659.679675
232001	661.099557
233001	662.516901
234001	663.931594
235001	665.343073
236001	666.751887
237001	668.157210
238001	669.559989
239001	670.960188
240001	672.357256
241001	673.751470
242001	675.143730
243001	676.533922
244001	677.921930
245001	679.307843
246001	680.691395
247001	682.072074
248001	683.450230
249001	684.825818
250001	686.199271
251001	687.570558
252001	688.937759
253001	690.301444
254001	691.661956
255001	693.019288
256001	694.373928
257001	695.725224
258001	697.074779
259001	698.421782
260001	699.766185
261001	701.108624
262001	702.448950
263001	703.787457
264001	705.123807
265001	706.457503
266001	707.789592
267001	709.119546
268001	710.447576
269001	711.773170
270001	713.095918
271001	714.415239
272001	715.731298
273001	717.044540
274001	718.356091
275001	719.665064
276001	720.971346
277001	722.274240
278001	723.574959
279001	724.874313
280001	726.171819
281001	727.466773
282001	728.759596
283001	730.050329
284001	731.339200
285001	732.626430
286001	733.912139
287001	735.196325
288001	736.477670
289001	737.756417
290001	739.032613
291001	740.306911
292001	741.578450
293001	742.847925
294001	744.115429
295001	745.380927
296001	746.643796
297001	747.904012
298001	749.162433
299001	750.418596
300001	751.672485
301001	752.924550
302001	754.175475
303001	755.424054
304001	756.669916
305001	757.913491
306001	759.155347
307001	760.395317
308001	761.632880
309001	762.868373
310001	764.101876
311001	765.332842
312001	766.561858
313001	767.788473
314001	769.012283
315001	770.234596
316001	771.455897
317001	772.676291
318001	773.895040
319001	775.111798
320001	776.326819
321001	777.540198
322001	778.752121
323001	779.962622
324001	781.171278
325001	782.378462
326001	783.584048
327001	784.788282
328001	785.991441
329001	787.192283
330001	788.391260
331001	789.588314
332001	790.782892
333001	791.975173
334001	793.164955
335001	794.351979
336001	795.537931
337001	796.722183
338001	797.903913
339001	799.083916
340001	800.262072
341001	801.438654
342001	802.613436
343001	803.786182
344001	804.958089
345001	806.128811
346001	807.297453
347001	808.464111
348001	809.629383
349001	810.793047
350001	811.954022
351001	813.113359
352001	814.271253
353001	815.427548
354001	816.581988
355001	817.735279
356001	818.886994
357001	820.036117
358001	821.183549
359001	822.329210
360001	823.472930
361001	824.614215
362001	825.754211
363001	826.892597
364001	828.029244
365001	829.164684
366001	830.298017
367001	831.430046
368001	832.560598
369001	833.688907
370001	834.815310
371001	835.939929
372001	837.063137
373001	838.185081
374001	839.305537
375001	840.424037
376001	841.540820
377001	842.656127
378001	843.769203
379001	844.880682
380001	845.991217
381001	847.100560
382001	848.208829
383001	849.316003
384001	850.422059
385001	851.526498
386001	852.629360
387001	853.730763
388001	854.830929
389001	855.929986
390001	857.027427
391001	858.123447
392001	859.217978
393001	860.311245
394001	861.402319
395001	862.491376
396001	863.578485
397001	864.664178
398001	865.747898
399001	866.830258
400001	867.911418
401001	868.991095
402001	870.069823
403001	871.147295
404001	872.223574
405001	873.299049
406001	874.373307
407001	875.446211
408001	876.518203
409001	877.588344
410001	878.657055
411001	879.724384
412001	880.790328
413001	881.854974
414001	882.918846
415001	883.981749
416001	885.043280
417001	886.103685
418001	887.162661
419001	888.219480
420001	889.274642
421001	890.328190
422001	891.379847
423001	892.429804
424001	893.477966
425001	894.524860
426001	895.570395
427001	896.614486
428001	897.657339
429001	898.698748
430001	899.738391
431001	900.776529
432001	901.813240
433001	902.848472
434001	903.882249
435001	904.914974
436001	905.946738
437001	906.977481
438001	908.007084
439001	909.035818
440001	910.063941
441001	911.091504
442001	912.117733
443001	913.142523
444001	914.165195
445001	915.186196
446001	916.205379
447001	917.223040
448001	918.239713
449001	919.255337
450001	920.269106
451001	921.281657
452001	922.293011
453001	923.302998
454001	924.312415
455001	925.321024
456001	926.328677
457001	927.335550
458001	928.341638
459001	929.346485
460001	930.349835
461001	931.352057
462001	932.352763
463001	933.352193
464001	934.350335
465001	935.347432
466001	936.343320
467001	937.338225
468001	938.332386
469001	939.325632
470001	940.317675
471001	941.307834
472001	942.296521
473001	943.283407
474001	944.269255
475001	945.254144
476001	946.237575
477001	947.220125
478001	948.201806
479001	949.182588
480001	950.162017
481001	951.140409
482001	952.117826
483001	953.094562
484001	954.070102
485001	955.044590
486001	956.018347
487001	956.991576
488001	957.964257
489001	958.936118
490001	959.906491
491001	960.875298
492001	961.843453
493001	962.810896
494001	963.777753
495001	964.743999
496001	965.709058
497001	966.673569
498001	967.637739
499001	968.601847
500001	969.564882
501001	970.527258
502001	971.488714
503001	972.449805
504001	973.410184
505001	974.368816
506001	975.326308
507001	976.282642
508001	977.238212
509001	978.192219
510001	979.144971
511001	980.096905
512001	981.047159
513001	981.996338
514001	982.944885
515001	983.892998
516001	984.840130
517001	985.786778
518001	986.732274
519001	987.676895
520001	988.620790
521001	989.563673
522001	990.505619
523001	991.447035
524001	992.387005
525001	993.325628
526001	994.263448
527001	995.200280
528001	996.135758
529001	997.070156
530001	998.003844
531001	998.936944
532001	999.868582
533001	1000.798940
534001	1001.728282
535001	1002.656585
536001	1003.583971
537001	1004.510398
538001	1005.436094
539001	1006.361427
540001	1007.286189
541001	1008.210307
542001	1009.133457
543001	1010.055993
544001	1010.977959
545001	1011.898806
546001	1012.818905
547001	1013.738248
548001	1014.656678
549001	1015.574135
550001	1016.490538
551001	1017.405763
552001	1018.320001
553001	1019.233373
554001	1020.146031
555001	1021.058549
556001	1021.970133
557001	1022.881311
558001	1023.791940
559001	1024.701796
560001	1025.610632
561001	1026.518540
562001	1027.424678
563001	1028.329916
564001	1029.234591
565001	1030.138514
566001	1031.041947
567001	1031.944493
568001	1032.845860
569001	1033.746426
570001	1034.646366
571001	1035.544952
572001	1036.442640
573001	1037.339327
574001	1038.235166
575001	1039.130302
576001	1040.024261
577001	1040.917401
578001	1041.809938
579001	1042.701697
580001	1043.592372
581001	1044.481780
582001	1045.370120
583001	1046.257570
584001	1047.144418
585001	1048.031294
586001	1048.918048
587001	1049.804638
588001	1050.691014
589001	1051.576913
590001	1052.462052
591001	1053.346083
592001	1054.229664
593001	1055.112592
594001	1055.994569
595001	1056.875986
596001	1057.756844
597001	1058.637261
598001	1059.517114
599001	1060.396139
600001	1061.274212
601001	1062.151206
602001	1063.027803
603001	1063.903949
604001	1064.779263
605001	1065.654109
606001	1066.528374
607001	1067.401836
608001	1068.274603
609001	1069.146363
610001	1070.017467
611001	1070.888092
612001	1071.758233
613001	1072.627803
614001	1073.496897
615001	1074.365596
616001	1075.233242
617001	1076.099143
618001	1076.964394
619001	1077.828960
620001	1078.692449
621001	1079.555188
622001	1080.417485
623001	1081.279045
624001	1082.139899
625001	1083.000466
626001	1083.860667
627001	1084.719858
628001	1085.578048
629001	1086.435383
630001	1087.292686
631001	1088.149166
632001	1089.004918
633001	1089.859985
634001	1090.714573
635001	1091.568614
636001	1092.422134
637001	1093.275019
638001	1094.127354
639001	1094.979292
640001	1095.831283
641001	1096.682710
642001	1097.532824
643001	1098.382396
644001	1099.231685
645001	1100.080672
646001	1100.929470
647001	1101.777689
648001	1102.625652
649001	1103.473253
650001	1104.320149
651001	1105.166690
652001	1106.012814
653001	1106.858206
654001	1107.702691
655001	1108.546587
656001	1109.389727
657001	1110.232475
658001	1111.074792
659001	1111.916641
660001	1112.758151
661001	1113.599211
662001	1114.439719
663001	1115.279930
664001	1116.119854
665001	1116.959082
666001	1117.797687
667001	1118.635449
668001	1119.472183
669001	1120.308211
670001	1121.143071
671001	1121.977528
672001	1122.811308
673001	1123.644679
674001	1124.477684
675001	1125.310792
676001	1126.143200
677001	1126.974707
678001	1127.805369
679001	1128.635359
680001	1129.464643
681001	1130.292965
682001	1131.120724
683001	1131.947750
684001	1132.774500
685001	1133.600605
686001	1134.425768
687001	1135.250001
688001	1136.073701
689001	1136.896800
690001	1137.719130
691001	1138.540938
692001	1139.362268
693001	1140.182925
694001	1141.002657
695001	1141.821707
696001	1142.640026
697001	1143.457884
698001	1144.275258
699001	1145.091989
700001	1145.908147
701001	1146.723701
702001	1147.538013
703001	1148.351816
704001	1149.164529
705001	1149.976595
706001	1150.788262
707001	1151.599251
708001	1152.409353
709001	1153.219053
710001	1154.028246
711001	1154.837062
712001	1155.645089
713001	1156.452116
714001	1157.258077
715001	1158.063673
716001	1158.868583
717001	1159.673063
718001	1160.477147
719001	1161.280948
720001	1162.084135
721001	1162.886433
722001	1163.688468
723001	1164.489740
724001	1165.290187
725001	1166.089738
726001	1166.888514
727001	1167.686669
728001	1168.484279
729001	1169.281660
730001	1170.078346
731001	1170.874654
732001	1171.670950
733001	1172.466781
734001	1173.261986
735001	1174.057130
736001	1174.851423
737001	1175.644787
738001	1176.437644
739001	1177.229840
740001	1178.021531
741001	1178.812963
742001	1179.603625
743001	1180.393201
744001	1181.182448
745001	1181.971219
746001	1182.759736
747001	1183.548048
748001	1184.335753
749001	1185.123019
750001	1185.909823
751001	1186.696771
752001	1187.483002
753001	1188.268732
754001	1189.054200
755001	1189.839446
756001	1190.624144
757001	1191.408160
758001	1192.191868
759001	1192.975390
760001	1193.758771
761001	1194.541919
762001	1195.324806
763001	1196.107476
764001	1196.889550
765001	1197.671401
766001	1198.452785
767001	1199.232692
768001	1200.011233
769001	1200.788494
770001	1201.565407
771001	1202.341271
772001	1203.116233
773001	1203.890341
774001	1204.664118
775001	1205.437378
776001	1206.210078
777001	1206.982143
778001	1207.753883
779001	1208.525440
780001	1209.297007
781001	1210.068090
782001	1210.838478
783001	1211.608152
784001	1212.377051
785001	1213.145492
786001	1213.913442
787001	1214.680767
788001	1215.447623
789001	1216.213627
790001	1216.978132
791001	1217.742526
792001	1218.506146
793001	1219.269465
794001	1220.032866
795001	1220.796203
796001	1221.559013
797001	1222.321385
798001	1223.083379
799001	1223.845235
800001	1224.607020
801001	1225.368427
802001	1226.129558
803001	1226.890452
804001	1227.650959
805001	1228.410963
806001	1229.170529
807001	1229.929935
808001	1230.689089
809001	1231.447664
810001	1232.205803
811001	1232.963414
812001	1233.720655
813001	1234.477127
814001	1235.233084
815001	1235.988742
816001	1236.743705
817001	1237.497716
818001	1238.251015
819001	1239.004012
820001	1239.756868
821001	1240.509262
822001	1241.261742
823001	1242.014242
824001	1242.766295
825001	1243.517633
826001	1244.268365
827001	1245.018811
828001	1245.768905
829001	1246.518399
830001	1247.267486
831001	1248.015964
832001	1248.763935
833001	1249.511516
834001	1250.258654
835001	1251.004967
836001	1251.750946
837001	1252.496234
838001	1253.240910
839001	1253.985547
840001	1254.729884
841001	1255.474026
842001	1256.217531
843001	1256.960389
844001	1257.703182
845001	1258.445498
846001	1259.187093
847001	1259.927774
848001	1260.667750
849001	1261.407213
850001	1262.146187
851001	1262.885171
852001	1263.623960
853001	1264.362641
854001	1265.101107
855001	1265.838870
856001	1266.576519
857001	1267.313781
858001	1268.050744
859001	1268.787154
860001	1269.523215
861001	1270.259281
862001	1270.994950
863001	1271.730583
864001	1272.465350
865001	1273.199786
866001	1273.934192
867001	1274.668279
868001	1275.402054
869001	1276.135148
870001	1276.868056
871001	1277.600576
872001	1278.332621
873001	1279.064214
874001	1279.795961
875001	1280.527622
876001	1281.259148
877001	1281.990074
878001	1282.720324
879001	1283.449857
880001	1284.179376
881001	1284.908655
882001	1285.637847
883001	1286.366844
884001	1287.095517
885001	1287.823983
886001	1288.551947
887001	1289.279400
888001	1290.006553
889001	1290.733417
890001	1291.460116
891001	1292.186029
892001	1292.911595
893001	1293.636812
894001	1294.361891
895001	1295.086127
896001	1295.810157
897001	1296.533807
898001	1297.257106
899001	1297.979761
900001	1298.702249
901001	1299.423981
902001	1300.145140
903001	1300.865851
904001	1301.586212
905001	1302.306353
906001	1303.025994
907001	1303.744763
908001	1304.463497
909001	1305.181859
910001	1305.899886
911001	1306.617412
912001	1307.334480
913001	1308.051438
914001	1308.768385
915001	1309.485106
916001	1310.201364
917001	1310.917502
918001	1311.633315
919001	1312.349106
920001	1313.064708
921001	1313.779838
922001	1314.494930
923001	1315.209713
924001	1315.924478
925001	1316.639041
926001	1317.352998
927001	1318.066391
928001	1318.779316
929001	1319.491448
930001	1320.203147
931001	1320.914131
932001	1321.624976
933001	1322.335294
934001	1323.044607
935001	1323.753255
936001	1324.461446
937001	1325.169203
938001	1325.876762
939001	1326.584343
940001	1327.291618
941001	1327.998677
942001	1328.704986
943001	1329.410232
944001	1330.114982
945001	1330.819678
946001	1331.524288
947001	1332.228705
948001	1332.932828
949001	1333.636476
950001	1334.339945
951001	1335.043180
952001	1335.746243
953001	1336.448837
954001	1337.151220
955001	1337.853643
956001	1338.555961
957001	1339.258243
958001	1339.960365
959001	1340.662039
960001	1341.363554
961001	1342.064856
962001	1342.765657
963001	1343.465863
964001	1344.165626
965001	1344.864980
966001	1345.563840
967001	1346.262274
968001	1346.960270
969001	1347.657794
970001	1348.354970
971001	1349.051494
972001	1349.747408
973001	1350.443095
974001	1351.138499
975001	1351.833287
976001	1352.527951
977001	1353.222193
978001	1353.916195
979001	1354.609977
980001	1355.303091
981001	1355.995743
982001	1356.688184
983001	1357.380516
984001	1358.072499
985001	1358.763814
986001	1359.454441
987001	1360.144521
988001	1360.834172
989001	1361.523602
990001	1362.212702
991001	1362.901429
992001	1363.589981
993001	1364.278488
994001	1364.966452
995001	1365.654197
996001	1366.341161
997001	1367.027830
998001	1367.714124
999001	1368.399855
1000001	1369.084987
1001001	1369.769788
1002001	1370.454424
1003001	1371.138757
1004001	1371.822729
1005001	1372.506337
1006001	1373.189502
1007001	1373.872388
1008001	1374.555168
1009001	1375.237391
1010001	1375.919046
1011001	1376.600254
1012001	1377.281020
1013001	1377.961671
1014001	1378.642149
1015001	1379.322674
1016001	1380.002922
1017001	1380.682830
1018001	1381.361980
1019001	1382.040794
1020001	1382.719132
1021001	1383.397165
1022001	1384.074840
1023001	1384.751938
1024001	1385.428722
1025001	1386.105254
1026001	1386.781245
1027001	1387.456839
1028001	1388.131932
1029001	1388.806917
1030001	1389.481664
1031001	1390.156309
1032001	1390.830550
1033001	1391.504460
1034001	1392.178070
1035001	1392.851144
1036001	1393.524051
1037001	1394.196966
1038001	1394.869580
1039001	1395.541879
1040001	1396.214317
1041001	1396.886968
1042001	1397.559607
1043001	1398.232313
1044001	1398.904922
1045001	1399.577632
1046001	1400.250286
1047001	1400.922803
1048001	1401.595094
1049001	1402.267252
1050001	1402.939304
1051001	1403.611187
1052001	1404.282495
1053001	1404.953381
1054001	1405.623950
1055001	1406.294674
1056001	1406.965506
1057001	1407.636107
1058001	1408.306145
1059001	1408.975948
1060001	1409.645149
1061001	1410.313832
1062001	1410.982558
1063001	1411.651396
1064001	1412.320104
1065001	1412.988624
1066001	1413.656768
1067001	1414.324667
1068001	1414.992625
1069001	1415.660441
1070001	1416.328196
1071001	1416.995739
1072001	1417.662716
1073001	1418.329511
1074001	1418.995919
1075001	1419.661700
1076001	1420.327026
1077001	1420.992053
1078001	1421.656459
1079001	1422.320753
1080001	1422.985010
