Signal handled: Interrupt.
1000	1347.431932
2000	2544.701186
3000	3685.258560
4000	4789.032974
5000	5865.453365
6000	6920.049551
7000	7956.474981
8000	8977.311931
9000	9984.507285
10000	10979.557042
11000	11963.645659
12000	12937.823169
13000	13902.939678
14000	14859.605240
15000	15808.456322
16000	16750.057186
17000	17684.852545
18000	18613.182529
19000	19535.416115
20000	20451.874008
21000	21362.874883
22000	22268.689492
23000	23169.549940
24000	24065.639416
25000	24957.204615
26000	25844.358908
27000	26727.231730
28000	27605.996161
29000	28480.807169
30000	29351.808299
31000	30219.156162
32000	31083.002937
33000	31943.422189
34000	32800.465430
35000	33654.240090
36000	34504.800551
37000	35352.247900
38000	36196.680384
39000	37038.191011
40000	37876.841197
41000	38712.696932
42000	39545.859878
43000	40376.361374
44000	41204.274581
45000	42029.639083
46000	42852.518353
47000	43672.961323
48000	44491.041646
49000	45306.793617
50000	46120.249270
51000	46931.444545
52000	47740.435890
53000	48547.265958
54000	49351.970611
55000	50154.562449
56000	50955.088514
57000	51753.586733
58000	52550.088253
59000	53344.586595
60000	54137.174845
61000	54927.885335
62000	55716.729058
63000	56503.725053
64000	57288.895684
65000	58072.275746
66000	58853.924696
67000	59633.842173
68000	60412.062159
69000	61188.575235
70000	61963.400646
71000	62736.580172
72000	63508.169294
73000	64278.192361
74000	65046.654335
75000	65813.577446
76000	66578.960086
77000	67342.821204
78000	68105.190441
79000	68866.055384
80000	69625.473278
81000	70383.454053
82000	71140.004027
83000	71895.146872
84000	72648.897734
85000	73401.268042
86000	74152.287837
87000	74901.957204
88000	75650.300220
89000	76397.324893
90000	77143.027869
91000	77887.405185
92000	78630.504102
93000	79372.356429
94000	80112.943359
95000	80852.255261
96000	81590.342758
97000	82327.223923
98000	83062.891133
99000	83797.366778
100000	84530.666592
101000	85262.798861
102000	85993.762047
103000	86723.563168
104000	87452.228451
105000	88179.769460
106000	88906.204688
107000	89631.506673
108000	90355.696404
109000	91078.798950
110000	91800.809033
111000	92521.743133
112000	93241.616007
113000	93960.435275
114000	94678.190631
115000	95394.885985
116000	96110.553096
117000	96825.192376
118000	97538.826558
119000	98251.463391
120000	98963.102980
121000	99673.757237
122000	100383.422587
123000	101092.115760
124000	101799.839656
125000	102506.614930
126000	103212.424012
127000	103917.265351
128000	104621.144128
129000	105324.063826
130000	106026.049801
131000	106727.111164
132000	107427.247353
133000	108126.470138
134000	108824.793463
135000	109522.211193
136000	110218.722264
137000	110914.338369
138000	111609.072006
139000	112302.926122
140000	112995.921489
141000	113688.045982
142000	114379.318147
143000	115069.722350
144000	115759.251405
145000	116447.935065
146000	117135.773736
147000	117822.778436
148000	118508.925297
149000	119194.234098
150000	119878.714027
151000	120562.364146
152000	121245.192859
153000	121927.190233
154000	122608.381713
155000	123288.758181
156000	123968.348138
157000	124647.140401
158000	125325.143459
159000	126002.349775
160000	126678.771795
161000	127354.416901
162000	128029.284223
163000	128703.373265
164000	129376.687301
165000	130049.253399
166000	130721.068413
167000	131392.124692
168000	132062.420244
169000	132731.961663
170000	133400.742072
171000	134068.772611
172000	134736.080655
173000	135402.650823
174000	136068.488459
175000	136733.586954
176000	137397.991525
177000	138061.690057
178000	138724.663246
179000	139386.932324
180000	140048.509246
181000	140709.387303
182000	141369.562976
183000	142029.051948
184000	142687.844550
185000	143345.929344
186000	144003.306736
187000	144659.978704
188000	145315.965310
189000	145971.277402
190000	146625.929638
191000	147279.915554
192000	147933.233939
193000	148585.867773
194000	149237.835373
195000	149889.127880
196000	150539.748938
197000	151189.720012
198000	151839.040173
199000	152487.699452
200000	153135.700058
201000	153783.043719
202000	154429.735900
203000	155075.794188
204000	155721.217286
205000	156365.988978
206000	157010.092436
207000	157653.561985
208000	158296.411977
209000	158938.632964
210000	159580.225408
211000	160221.179959
212000	160861.530343
213000	161501.251838
214000	162140.346906
215000	162778.840021
216000	163416.716299
217000	164053.976843
218000	164690.629445
219000	165326.658321
220000	165962.074138
221000	166596.872695
222000	167231.060129
223000	167864.657268
224000	168497.666269
225000	169130.094370
226000	169761.931249
227000	170393.172804
228000	171023.833910
229000	171653.889205
230000	172283.352889
231000	172912.227395
232000	173540.507459
233000	174168.208612
234000	174795.337547
235000	175421.899035
236000	176047.895298
237000	176673.320159
238000	177298.171242
239000	177922.458976
240000	178546.174528
241000	179169.333591
242000	179791.927934
243000	180413.959062
244000	181035.428665
245000	181656.346239
246000	182276.719738
247000	182896.538549
248000	183515.791424
249000	184134.499303
250000	184752.644984
251000	185370.231418
252000	185987.262072
253000	186603.736052
254000	187219.666446
255000	187835.051923
256000	188449.889670
257000	189064.174092
258000	189677.926363
259000	190291.149630
260000	190903.827779
261000	191515.982705
262000	192127.608467
263000	192738.709183
264000	193349.295448
265000	193959.361962
266000	194568.896914
267000	195177.908422
268000	195786.403715
269000	196394.389712
270000	197001.865211
271000	197608.830477
272000	198215.266472
273000	198821.195243
274000	199426.626540
275000	200031.555555
276000	200635.966988
277000	201239.867558
278000	201843.240472
279000	202446.105264
280000	203048.475753
281000	203650.365835
282000	204251.759183
283000	204852.671846
284000	205453.095000
285000	206053.013950
286000	206652.423778
287000	207251.333428
288000	207849.739569
289000	208447.641484
290000	209045.046439
291000	209641.961133
292000	210238.376298
293000	210834.303863
294000	211429.730697
295000	212024.666335
296000	212619.112558
297000	213213.073013
298000	213806.541596
299000	214399.528228
300000	214992.039266
301000	215584.088352
302000	216175.664984
303000	216766.766016
304000	217357.390729
305000	217947.532987
306000	218537.188723
307000	219126.375134
308000	219715.081766
309000	220303.301985
310000	220891.046616
311000	221478.322979
312000	222065.142949
313000	222651.491262
314000	223237.388128
315000	223822.833612
316000	224407.814606
317000	224992.335628
318000	225576.382914
319000	226159.960990
320000	226743.086555
321000	227325.764782
322000	227907.982520
323000	228489.733270
324000	229071.040165
325000	229651.896414
326000	230232.307885
327000	230812.259190
328000	231391.759717
329000	231970.798966
330000	232549.363161
331000	233127.476845
332000	233705.138500
333000	234282.357552
334000	234859.115703
335000	235435.406733
336000	236011.239397
337000	236586.633786
338000	237161.581354
339000	237736.087374
340000	238310.154643
341000	238883.779473
342000	239456.967403
343000	240029.726613
344000	240602.036793
345000	241173.903308
346000	241745.332501
347000	242316.318565
348000	242886.865812
349000	243456.972183
350000	244026.647674
351000	244595.880464
352000	245164.675378
353000	245733.027733
354000	246300.943956
355000	246868.433193
356000	247435.508976
357000	248002.156962
358000	248568.374586
359000	249134.166679
360000	249699.513979
361000	250264.430634
362000	250828.918081
363000	251392.970836
364000	251956.583582
365000	252519.771491
366000	253082.534741
367000	253644.862605
368000	254206.752723
369000	254768.213865
370000	255329.257067
371000	255889.865698
372000	256450.056530
373000	257009.823445
374000	257569.163682
375000	258128.076354
376000	258686.579427
377000	259244.672463
378000	259802.371173
379000	260359.683768
380000	260916.568208
381000	261473.028897
382000	262029.079995
383000	262584.732435
384000	263139.987988
385000	263694.852134
386000	264249.315217
387000	264803.370496
388000	265357.009846
389000	265910.236128
390000	266463.047768
391000	267015.461713
392000	267567.467845
393000	268119.057525
394000	268670.236034
395000	269221.013056
396000	269771.387073
397000	270321.356083
398000	270870.912530
399000	271420.055857
400000	271968.790356
401000	272517.119749
402000	273065.049853
403000	273612.571870
404000	274159.691432
405000	274706.387696
406000	275252.681576
407000	275798.590006
408000	276344.094561
409000	276889.207114
410000	277433.928008
411000	277978.223089
412000	278522.093769
413000	279065.568878
414000	279608.641156
415000	280151.315092
416000	280693.585962
417000	281235.460402
418000	281776.938613
419000	282318.017855
420000	282858.695927
421000	283398.984105
422000	283938.874906
423000	284478.361838
424000	285017.461282
425000	285556.166535
426000	286094.477299
427000	286632.387913
428000	287169.901696
429000	287707.028044
430000	288243.770541
431000	288780.133375
432000	289316.105514
433000	289851.675741
434000	290386.843118
435000	290921.609758
436000	291455.985638
437000	291989.985358
438000	292523.570891
439000	293056.760155
440000	293589.535126
441000	294121.913388
442000	294653.923174
443000	295185.558240
444000	295716.813215
445000	296247.662150
446000	296778.124649
447000	297308.208273
448000	297837.913648
449000	298367.239979
450000	298896.192724
451000	299424.755954
452000	299952.921825
453000	300480.701301
454000	301008.092665
455000	301535.097173
456000	302061.719489
457000	302587.948857
458000	303113.792014
459000	303639.246318
460000	304164.311167
461000	304688.991184
462000	305213.283192
463000	305737.204313
464000	306260.767562
465000	306783.959797
466000	307306.755501
467000	307829.166592
468000	308351.207713
469000	308872.878511
470000	309394.184184
471000	309915.118698
472000	310435.672624
473000	310955.831445
474000	311475.603741
475000	311995.002219
476000	312514.020607
477000	313032.654378
478000	313550.908844
479000	314068.786977
480000	314586.300976
481000	315103.435913
482000	315620.213505
483000	316136.602647
484000	316652.604308
485000	317168.213775
486000	317683.432997
487000	318198.275368
488000	318712.751210
489000	319226.855067
490000	319740.577423
491000	320253.935486
492000	320766.929673
493000	321279.555661
494000	321791.819340
495000	322303.711028
496000	322815.241253
497000	323326.401984
498000	323837.192820
499000	324347.627312
500000	324857.689720
501000	325367.397240
502000	325876.729547
503000	326385.701899
504000	326894.315853
505000	327402.553925
506000	327910.434972
507000	328417.953530
508000	328925.103879
509000	329431.887490
510000	329938.291514
511000	330444.321071
512000	330949.978509
513000	331455.267711
514000	331960.197524
515000	332464.779466
516000	332969.015087
517000	333472.895480
518000	333976.428174
519000	334479.594750
520000	334982.402658
521000	335484.863617
522000	335986.971743
523000	336488.732484
524000	336990.130406
525000	337491.140708
526000	337991.792509
527000	338492.098991
528000	338992.029236
529000	339491.601329
530000	339990.816249
531000	340489.674127
532000	340988.167276
533000	341486.301040
534000	341984.069618
535000	342481.475126
536000	342978.507773
537000	343475.191986
538000	343971.529415
539000	344467.503703
540000	344963.108077
541000	345458.364188
542000	345953.264602
543000	346447.819552
544000	346942.041298
545000	347435.911484
546000	347929.441123
547000	348422.632867
548000	348915.469191
549000	349407.946433
550000	349900.077223
551000	350391.841009
552000	350883.249788
553000	351374.291954
554000	351864.959312
555000	352355.251264
556000	352845.178028
557000	353334.754486
558000	353823.968239
559000	354312.799940
560000	354801.266845
561000	355289.374280
562000	355777.114710
563000	356264.495026
564000	356751.510009
565000	357238.164359
566000	357724.478341
567000	358210.434456
568000	358696.027972
569000	359181.263232
570000	359666.138057
571000	360150.678602
572000	360634.875934
573000	361118.729368
574000	361602.237776
575000	362085.395926
576000	362568.178862
577000	363050.592275
578000	363532.646033
579000	364014.334268
580000	364495.653308
581000	364976.606406
582000	365457.203393
583000	365937.442130
584000	366417.353968
585000	366896.936305
586000	367376.175199
587000	367855.059365
588000	368333.584561
589000	368811.764457
590000	369289.591599
591000	369767.074641
592000	370244.198419
593000	370720.961175
594000	371197.360920
595000	371673.407030
596000	372149.091072
597000	372624.433623
598000	373099.436040
599000	373574.076072
600000	374048.363359
601000	374522.285717
602000	374995.857435
603000	375469.068662
604000	375941.917644
605000	376414.421113
606000	376886.566636
607000	377358.356285
608000	377829.800482
609000	378300.894811
610000	378771.638030
611000	379242.035764
612000	379712.078837
613000	380181.772091
614000	380651.122331
615000	381120.125878
616000	381588.786765
617000	382057.105529
618000	382525.084563
619000	382992.730841
620000	383460.029489
621000	383926.978175
622000	384393.571469
623000	384859.808206
624000	385325.707833
625000	385791.268708
626000	386256.485581
627000	386721.351688
628000	387185.871206
629000	387650.047115
630000	388113.884762
631000	388577.393112
632000	389040.568702
633000	389503.406245
634000	389965.891619
635000	390428.021583
636000	390889.825922
637000	391351.297401
638000	391812.423290
639000	392273.190750
640000	392733.582148
641000	393193.618282
642000	393653.292513
643000	394112.612914
644000	394571.591190
645000	395030.239403
646000	395488.540562
647000	395946.504204
648000	396404.103639
649000	396861.371600
650000	397318.304409
651000	397774.889768
652000	398231.130774
653000	398687.032710
654000	399142.576592
655000	399597.764741
656000	400052.613964
657000	400507.100794
658000	400961.232922
659000	401415.032187
660000	401868.476306
661000	402321.560883
662000	402774.294685
663000	403226.669962
664000	403678.682217
665000	404130.327224
666000	404581.625452
667000	405032.597359
668000	405483.238704
669000	405933.548020
670000	406383.521149
671000	406833.125020
672000	407282.368832
673000	407731.263574
674000	408179.833750
675000	408628.070848
676000	409075.977049
677000	409523.549821
678000	409970.791186
679000	410417.690726
680000	410864.252169
681000	411310.460333
682000	411756.334725
683000	412201.877907
684000	412647.076957
685000	413091.943838
686000	413536.483521
687000	413980.692564
688000	414424.566963
689000	414868.107748
690000	415311.308843
691000	415754.174555
692000	416196.692192
693000	416638.871634
694000	417080.701115
695000	417522.188587
696000	417963.323844
697000	418404.121053
698000	418844.574892
699000	419284.680399
700000	419724.445562
701000	420163.885655
702000	420602.989521
703000	421041.757479
704000	421480.200294
705000	421918.300952
706000	422356.054146
707000	422793.475444
708000	423230.559542
709000	423667.290535
710000	424103.682292
711000	424539.718843
712000	424975.413899
713000	425410.762176
714000	425845.784560
715000	426280.468204
716000	426714.809244
717000	427148.787464
718000	427582.415572
719000	428015.709359
720000	428448.642058
721000	428881.242789
722000	429313.504067
723000	429745.424357
724000	430177.002083
725000	430608.233133
726000	431039.099053
727000	431469.606788
728000	431899.764924
729000	432329.563693
730000	432758.992658
731000	433188.062386
732000	433616.793404
733000	434045.200525
734000	434473.249868
735000	434900.933047
736000	435328.278659
737000	435755.283520
738000	436181.932532
739000	436608.233488
740000	437034.201158
741000	437459.856659
742000	437885.158695
743000	438310.114231
744000	438734.709800
745000	439158.950205
746000	439582.840237
747000	440006.374352
748000	440429.569436
749000	440852.422616
750000	441274.939439
751000	441697.107177
752000	442118.939152
753000	442540.408511
754000	442961.545150
755000	443382.340141
756000	443802.802607
757000	444222.922739
758000	444642.680676
759000	445062.095733
760000	445481.147544
761000	445899.833067
762000	446318.158305
763000	446736.149104
764000	447153.796639
765000	447571.098085
766000	447988.049532
767000	448404.656137
768000	448820.903057
769000	449236.807848
770000	449652.382094
771000	450067.600161
772000	450482.489417
773000	450897.034526
774000	451311.256631
775000	451725.149698
776000	452138.696660
777000	452551.874820
778000	452964.719108
779000	453377.203725
780000	453789.318780
781000	454201.069603
782000	454612.488133
783000	455023.551112
784000	455434.278382
785000	455844.663525
786000	456254.706345
787000	456664.418862
788000	457073.795644
789000	457482.818972
790000	457891.509533
791000	458299.865529
792000	458707.859863
793000	459115.494015
794000	459522.771877
795000	459929.711576
796000	460336.314672
797000	460742.581217
798000	461148.490210
799000	461554.037632
800000	461959.247500
801000	462364.115843
802000	462768.630492
803000	463172.806551
804000	463576.647904
805000	463980.143259
806000	464383.296418
807000	464786.083867
808000	465188.503841
809000	465590.573238
810000	465992.286288
811000	466393.662329
812000	466794.676315
813000	467195.340814
814000	467595.656177
815000	467995.592544
816000	468395.163663
817000	468794.349909
818000	469193.175508
819000	469591.652953
820000	469989.774630
821000	470387.544014
822000	470784.962747
823000	471182.013868
824000	471578.712366
825000	471975.084020
826000	472371.102946
827000	472766.773731
828000	473162.074419
829000	473557.003188
830000	473951.563457
831000	474345.750414
832000	474739.601033
833000	475133.084982
834000	475526.198808
835000	475918.934260
836000	476311.295414
837000	476703.306265
838000	477094.966525
839000	477486.261975
840000	477877.226104
841000	478267.854598
842000	478658.151110
843000	479048.073062
844000	479437.617214
845000	479826.777555
846000	480215.596547
847000	480604.068665
848000	480992.199778
849000	481379.947108
850000	481767.325608
851000	482154.304777
852000	482540.893474
853000	482927.121079
854000	483312.966041
855000	483698.447660
856000	484083.569504
857000	484468.328378
858000	484852.714078
859000	485236.716947
860000	485620.351400
861000	486003.610269
862000	486386.510392
863000	486769.061573
864000	487151.239311
865000	487533.031232
866000	487914.449588
867000	488295.494685
868000	488676.204013
869000	489056.518208
870000	489436.464550
871000	489816.047554
872000	490195.268148
873000	490574.139772
874000	490952.645626
875000	491330.799450
876000	491708.595273
877000	492086.012144
878000	492463.070143
879000	492839.760111
880000	493216.060375
881000	493592.006027
882000	493967.606120
883000	494342.831642
884000	494717.694907
885000	495092.251902
886000	495466.456950
887000	495840.272167
888000	496213.697369
889000	496586.739217
890000	496959.432898
891000	497331.789237
892000	497703.790484
893000	498075.427467
894000	498446.705415
895000	498817.617828
896000	499188.167704
897000	499558.353275
898000	499928.154470
899000	500297.599769
900000	500666.703741
901000	501035.461829
902000	501403.834556
903000	501771.791203
904000	502139.341695
905000	502506.472940
906000	502873.239274
907000	503239.619295
908000	503605.667640
909000	503971.364727
910000	504336.703705
911000	504701.677898
912000	505066.291400
913000	505430.571145
914000	505794.455537
915000	506157.930842
916000	506521.013520
917000	506883.753291
918000	507246.117067
919000	507608.071464
920000	507969.631344
921000	508330.808862
922000	508691.580414
923000	509052.004901
924000	509412.082117
925000	509771.783422
926000	510131.069160
927000	510489.959217
928000	510848.496246
929000	511206.655289
930000	511564.475320
931000	511921.971934
932000	512279.078916
933000	512635.822285
934000	512992.203432
935000	513348.175711
936000	513703.740199
937000	514058.876414
938000	514413.626143
939000	514768.044301
940000	515122.065024
941000	515475.801952
942000	515829.189499
943000	516182.197867
944000	516534.825293
945000	516887.109110
946000	517238.948138
947000	517590.453948
948000	517941.578408
949000	518292.266623
950000	518642.625481
951000	518992.651301
952000	519342.258176
953000	519691.568129
954000	520040.522615
955000	520389.064997
956000	520737.202265
957000	521084.959385
958000	521432.324252
959000	521779.295570
960000	522125.925964
961000	522472.151173
962000	522817.976886
