Signal handled: Interrupt.
47.702206	11.680415
47.735076	11.667388
47.767912	11.655368
47.800714	11.644049
47.833486	11.633370
47.866228	11.622763
47.898940	11.612597
47.931624	11.602241
47.964279	11.592265
47.996907	11.582731
48.029508	11.573515
48.062084	11.564479
48.094633	11.555178
48.127157	11.546256
48.159656	11.537639
48.192130	11.528740
48.224582	11.520684
48.257009	11.512240
48.289413	11.504130
48.321794	11.495770
48.354151	11.487914
48.386486	11.479470
48.418799	11.471730
48.451089	11.463478
48.483357	11.456009
48.515604	11.448874
48.547831	11.441336
48.580036	11.433733
48.612220	11.425756
48.644382	11.418346
48.676523	11.410886
48.708643	11.403608
48.740742	11.395910
48.772819	11.388240
48.804875	11.381183
48.836912	11.374138
48.868929	11.367105
48.900926	11.359467
48.932901	11.352413
48.964857	11.345664
48.996794	11.338834
49.028711	11.331863
49.060609	11.324455
49.092486	11.317307
49.124343	11.310495
49.156181	11.303804
49.187999	11.296708
49.219799	11.290398
49.251581	11.283790
49.283344	11.277427
49.315090	11.271169
49.346818	11.264940
49.378527	11.258196
49.410218	11.251729
49.441891	11.245459
49.473546	11.238784
49.505183	11.232865
49.536804	11.227005
49.568407	11.220631
49.599993	11.214378
49.631561	11.208091
49.663112	11.202142
49.694646	11.196051
49.726163	11.189724
49.757662	11.183596
49.789142	11.176799
49.820605	11.170929
49.852052	11.165087
49.883481	11.159025
49.914894	11.153364
49.946291	11.147359
49.977671	11.141816
50.009036	11.136007
50.040384	11.130134
50.071716	11.124506
50.103032	11.118767
50.134331	11.112528
50.165613	11.106969
50.196879	11.101439
50.228130	11.095581
50.259365	11.090045
50.290584	11.084881
50.321789	11.079201
50.352977	11.073440
50.384149	11.067677
50.415305	11.061896
50.446445	11.056174
50.477569	11.050901
50.508677	11.045345
50.539771	11.040066
50.570849	11.034505
50.601860	29.185128
50.632958	11.023656
50.663991	11.018118
50.695007	11.012640
50.726009	11.007549
50.756995	11.001661
50.787965	10.996238
50.818921	10.990984
50.849861	10.985291
50.880785	10.980172
50.911645	28.564300
50.942588	10.969006
50.973466	10.963646
51.004330	10.958298
51.035178	10.952871
51.066010	10.947175
51.096827	10.942085
51.127631	10.937352
51.158421	10.932586
51.189197	10.927302
51.219958	10.921906
51.250703	10.916742
51.281435	10.911497
51.312152	10.906407
51.342855	10.901454
51.373544	10.896750
51.404219	10.891542
51.434879	10.886051
51.465524	10.880839
51.496154	10.875421
51.526769	10.870548
51.557372	10.866111
51.587961	10.861218
51.618537	10.856166
51.649099	10.851770
51.679647	10.846838
51.710182	10.841373
51.740701	10.836280
51.771207	10.831545
51.801698	10.826197
51.832175	10.821411
51.862638	10.816262
51.893087	10.811691
51.923523	10.806600
51.953946	10.802165
51.984355	10.797210
52.014750	10.792097
52.045132	10.787530
52.075500	-5.083986
52.105855	10.778138
52.136197	10.773031
52.166524	10.768047
52.196837	10.763218
52.227138	10.759156
52.257427	10.754746
52.287703	10.750020
52.317967	10.745528
52.348217	10.741049
52.378455	10.736741
52.408681	10.732431
52.438894	10.727490
52.469094	-4.670691
52.499279	10.717334
52.529450	-19.932697
52.559609	10.708836
52.589756	10.704245
52.619891	10.699842
52.650013	10.695373
52.680121	10.690634
52.710217	10.686523
52.740302	10.682143
52.770375	10.677886
52.800392	25.693259
52.830439	25.656811
52.860516	10.664458
52.890538	10.659625
52.920547	10.655484
52.950543	10.651073
52.980528	10.646219
53.010498	10.641315
53.040456	10.637039
53.070400	10.632194
53.100331	10.627504
53.130166	25.299971
53.160154	10.618354
53.190047	10.614068
53.219927	10.609779
53.249795	10.605047
53.279651	10.600976
53.309494	-3.902084
53.339243	25.060558
53.369142	10.587391
53.398947	-3.828702
53.428740	10.578598
53.458481	24.929504
53.488290	-3.757027
53.518046	-3.734107
53.547789	10.561097
53.577520	-3.685638
53.607240	10.552532
53.636948	10.548483
53.666644	-17.778756
53.696328	10.539938
53.726000	10.536089
53.755660	-3.548752
53.785308	10.527294
53.814945	10.523234
53.844570	10.518792
53.874182	-3.461624
53.903781	-3.440614
53.933366	10.505247
53.962941	10.501050
53.992504	10.497405
54.022056	10.493236
54.051596	10.489033
54.081124	10.484463
54.110639	10.480129
54.140143	10.475841
54.169596	24.190343
54.199115	10.467781
54.228584	10.463868
54.258004	24.104949
54.287488	10.455511
54.316885	24.048935
54.346347	10.447877
54.375761	-3.104293
54.405163	10.439997
54.434516	23.935441
54.463932	10.431586
54.493299	10.427401
54.522654	10.423278
54.551997	10.419136
54.581329	-2.966635
54.610612	23.769307
54.639958	10.406796
54.669256	10.402568
54.698503	23.687774
54.727815	-16.139191
54.757078	10.390522
54.786330	10.386572
54.815571	10.382796
54.844801	10.378762
54.874019	10.374552
54.903189	23.502402
54.932421	10.366826
54.961570	23.451324
54.990781	10.358615
55.019943	10.355112
55.049096	10.351416
55.078237	10.347734
55.107368	10.343683
55.136488	10.339902
55.165597	10.335832
55.194695	10.332191
55.223781	10.327718
55.252748	23.196867
55.281920	-2.532151
55.310972	10.315661
55.339977	23.121249
55.369043	-15.271365
55.397990	23.072492
55.427036	23.048886
55.456001	23.024151
55.485062	10.293746
55.514041	10.289654
55.543008	10.285975
55.571965	10.281686
55.600911	10.278020
55.629846	10.274127
55.658734	22.856023
55.687682	10.266161
55.716584	10.262807
55.745476	-27.325958
55.774356	-14.762795
55.803190	22.740142
55.832084	10.247244
55.860931	10.243129
55.889733	22.670840
55.918593	10.235533
55.947374	22.626622
55.976214	-2.147979
56.004941	22.582195
56.033796	10.221457
56.062502	22.537002
56.091303	22.516384
56.120093	10.210750
56.148838	10.206809
56.177573	10.202818
56.206296	10.198857
56.235008	10.195102
56.263711	10.192068
56.292334	22.361838
56.321050	22.340294
56.349756	10.180404
56.378416	10.176785
56.406964	22.275316
56.435707	-1.914452
56.464337	10.166223
56.492958	-1.885422
56.521534	22.189402
56.550167	-1.858288
56.578757	10.151839
56.607269	22.126985
56.635905	10.144250
56.664363	22.086982
56.692979	22.065937
56.721553	10.133979
56.750015	22.024911
56.778601	-1.750873
56.807109	10.122824
56.835575	21.963193
56.864065	21.943356
56.892579	10.113167
56.920984	21.904498
56.949378	21.884219
56.977928	21.864022
57.006401	10.098808
57.034831	10.094811
57.063119	21.804221
57.091661	-1.608666
57.120062	10.084728
57.148453	-1.583729
57.176832	10.077201
57.205202	-1.558569
57.233528	21.685592
57.261910	10.065898
57.290216	21.648041
57.318547	21.628803
57.346900	-1.498062
57.375210	10.052417
57.403478	21.572342
57.431768	21.552690
57.460082	-1.450313
57.488352	10.038441
57.516581	21.495858
57.544863	-1.414604
57.573073	21.459580
57.601337	-1.391175
57.629559	10.021228
57.657772	10.018033
57.685944	21.383162
57.714170	10.011249
57.742355	10.007774
57.770529	-1.318334
57.798695	10.001110
57.826818	21.289786
57.854995	9.994051
57.883131	9.990794
57.911258	-1.259418
57.939344	21.215508
57.967452	21.197606
57.995583	-1.225057
58.023642	21.161444
58.051755	-12.373229
58.079828	9.968227
58.107892	9.964812
58.135883	21.090873
58.163958	21.071973
58.192023	9.954102
58.220046	-12.220753
58.248061	-1.124771
58.276004	21.002330
58.304062	9.940793
58.332017	20.968075
58.359994	20.950978
58.387961	20.932690
58.415949	9.927312
58.443896	9.923909
58.471834	9.920374
58.499732	20.863013
58.527682	-1.017493
58.555561	20.827585
58.583493	9.907179
58.611354	20.794181
58.639267	9.900595
58.667139	-0.966444
58.694971	20.743712
58.722854	-0.948211
58.750697	9.886482
58.778530	9.882880
58.806322	20.677084
58.834106	20.661118
58.861971	9.872879
58.889766	-22.402862
58.917431	20.610485
58.945328	9.862781
58.973065	20.577452
59.000853	-0.849047
59.028601	9.853369
59.056342	-11.508519
59.084043	20.513602
59.111796	9.844009
59.139511	-11.439814
59.167217	9.838066
59.194884	20.449546
59.222601	-0.770297
59.250280	9.828488
59.277951	-32.483512
59.305612	9.822105
59.333263	9.818601
59.360905	-11.261593
59.388507	20.338600
59.416160	9.808258
59.443773	9.804911
59.471376	9.801644
59.498970	9.798113
59.526495	20.258737
59.554129	-11.113911
59.581694	9.787724
59.609131	20.212093
59.636794	9.780811
59.664300	20.180337
59.691826	20.164898
59.719371	-0.608301
59.746878	9.767097
59.774375	9.764155
59.801864	9.761179
59.829287	20.088830
59.856788	20.073801
59.884251	20.058881
59.911735	9.748785
59.939123	20.030463
59.966590	20.015168
59.994048	-10.780454
60.021442	19.986557
60.048886	9.734822
60.076293	-0.491838
60.103692	-20.906351
60.131082	-20.875075
60.158463	9.722310
60.185834	9.719133
60.213167	19.881743
60.240548	9.712626
60.267892	9.709034
60.295224	9.705243
60.322491	19.823044
60.349863	9.699232
60.377169	-30.696698
60.404408	19.780472
60.431667	19.765919
60.459030	9.685927
60.486299	9.682847
60.513502	19.722481
60.540811	9.676716
60.568054	-20.387035
60.595287	9.670135
60.622512	-0.330823
60.649728	9.664206
60.676879	19.637318
60.704133	-0.307889
60.731322	9.654502
60.758502	-0.291042
60.785673	9.647799
60.812834	9.644586
60.839931	19.551507
60.867129	-20.061321
60.894263	-10.143550
60.921388	-0.246612
60.948420	19.495616
60.975609	-0.231364
61.002624	19.467682
61.029796	-10.050126
61.056875	-0.208583
61.083891	19.425876
61.110981	19.412185
61.138063	-9.977253
61.165026	19.385111
61.192117	19.371142
61.219173	9.597495
61.246056	19.345025
61.273204	-29.368046
61.300180	19.317548
61.327201	9.585407
61.354106	19.291148
61.381166	9.579411
61.408134	-9.798287
61.435067	19.249345
61.462044	-0.096279
61.488986	9.566245
61.515918	-9.725537
61.542759	19.193798
61.569727	19.180519
61.596660	9.553449
61.623502	19.154518
61.650418	19.141388
61.677324	-28.789522
61.704114	19.114827
61.731055	-9.588753
61.757882	19.088848
61.784701	19.076039
61.811593	9.530053
61.838423	9.527394
61.865245	-9.502874
61.892059	9.521258
61.918758	19.012724
61.945637	19.000325
61.972453	9.512384
61.999180	18.974439
62.025978	18.961823
62.052741	18.948968
62.079468	18.935709
62.106267	-37.634971
62.132977	18.910542
62.159733	-9.322925
62.186427	18.885819
62.213165	9.485181
62.239764	18.860426
62.266514	18.848318
62.293255	-9.242788
62.319725	18.824422
62.346555	18.811542
62.373168	18.799542
62.399931	9.465720
62.426581	9.463029
62.453222	9.459938
62.479855	-9.126777
62.506453	18.736769
62.533095	-9.095065
62.559703	-9.080134
62.586303	-27.575190
62.612868	18.688014
62.639346	18.675900
62.666023	18.663493
62.692614	0.214666
62.719094	18.639084
62.745721	9.427516
62.772263	9.424707
62.798796	9.421546
62.825295	18.591004
62.851811	18.578176
62.878344	0.257946
62.904791	18.555106
62.931309	18.542248
62.957817	0.276727
62.984265	18.518453
63.010758	9.397872
63.037216	9.395065
63.063666	0.301319
63.090056	18.470087
63.116488	18.457463
63.142912	18.446655
63.169380	9.380222
63.195788	9.377289
63.222112	18.412702
63.248580	9.371637
63.274939	18.389932
63.301342	-44.703291
63.327662	18.366555
63.354075	0.367422
63.380430	9.358560
63.406778	9.356169
63.432993	18.321807
63.459453	9.350628
63.485753	18.298436
63.512096	-8.539311
63.538355	18.276414
63.564683	18.265391
63.590979	18.254295
63.617216	18.242605
63.643571	-17.364830
63.669843	-35.125429
63.696081	18.207420
63.722287	18.195579
63.748584	18.185165
63.774801	18.173668
63.801034	18.162572
63.827311	-34.884632
63.853504	18.141476
63.879740	9.307683
63.905919	18.119053
63.932091	18.108220
63.958329	-17.095027
63.984509	9.296145
64.010631	18.076020
64.036845	-25.804721
64.062977	18.053111
64.089150	9.284937
64.115290	-25.714767
64.141398	18.020345
64.167546	0.543874
64.193637	17.997240
64.219770	-8.159397
64.245872	0.561590
64.271966	9.265916
64.298053	9.263008
64.324058	17.942607
64.350081	17.930578
64.376242	17.919783
64.402321	9.251716
64.428320	17.897728
64.454384	17.887102
64.480416	17.876217
64.506390	17.864346
64.532454	17.854046
64.558366	17.843935
64.584440	17.833966
64.610482	-7.956526
64.636467	9.227233
64.662445	-33.663002
64.688318	17.791008
64.714303	17.780206
64.740305	17.769620
64.766276	-7.878092
64.792215	9.210945
64.818100	17.738302
64.844049	17.727970
64.869990	9.203129
64.895877	17.706867
64.921754	17.696131
64.947624	17.686033
64.973509	17.675578
64.999460	9.189325
65.025332	9.187173
65.051172	17.644360
65.077051	9.181087
65.102828	17.623732
65.128717	17.613204
65.154552	17.602823
65.180402	-7.673169
65.206197	17.583250
65.232009	17.573212
65.257789	17.562814
65.283632	9.159703
65.309396	17.541839
65.335176	17.531396
65.360949	17.521203
65.386738	0.786744
65.412472	17.500839
65.438198	17.490446
65.463988	9.141305
65.489724	0.807146
65.515452	0.811787
65.541127	17.449877
65.566772	17.440702
65.592526	17.430069
65.618297	-7.461650
65.643850	17.410175
65.669676	-23.994986
65.695308	17.390275
65.720887	17.380379
65.746691	9.113284
65.772185	17.360807
65.797904	17.350603
65.823640	0.870989
65.849276	0.875407
65.874836	17.321642
65.900527	-15.542146
65.926118	17.301552
65.951701	17.291967
65.977348	9.090545
66.002894	17.272430
66.028526	-7.269936
66.054080	17.252999
66.079673	9.079471
66.105120	17.233307
66.130743	17.223683
66.156199	17.213774
66.181738	17.204003
66.207384	17.194235
66.232931	9.063612
66.258448	-7.166943
66.283960	-15.260586
66.309466	-23.341788
66.334965	0.961677
66.360457	9.051939
66.385896	17.128947
66.411420	-31.314361
66.436892	9.044972
66.462358	0.984761
66.487748	17.092131
66.513223	17.083663
66.538690	17.073961
66.564107	17.065091
66.589515	17.055994
66.615006	9.027424
66.640422	-6.999058
66.665829	-6.989305
66.691183	17.017904
66.716599	17.008604
66.741851	16.999701
66.767319	16.989663
66.792759	9.009094
66.818055	16.970675
66.843457	16.961769
66.868762	16.951810
66.894126	16.942124
66.919416	16.932671
66.944833	8.993666
66.970086	16.914652
66.995467	8.988587
67.020773	1.076207
67.046073	8.983605
67.071365	8.981559
67.096585	16.869984
67.121886	16.859717
67.147112	16.850386
67.172400	16.841467
67.197680	16.831274
67.222975	8.966319
67.248219	8.963921
67.273278	16.803339
67.298594	16.794046
67.323837	16.784727
67.349118	-6.690693
67.374259	16.766472
67.399480	16.756936
67.424716	-14.461035
67.449857	16.738281
67.475079	-6.638312
67.500206	16.721039
67.525347	16.712325
67.550525	16.703748
67.575698	16.694962
67.600863	8.928108
67.625998	8.925638
67.650996	16.667486
67.676248	-6.554404
67.701341	16.649455
67.726471	8.915678
67.751572	-29.680306
67.776578	16.622583
67.801751	1.201517
67.826830	-6.494851
67.851881	16.597653
67.876904	16.588890
67.902027	-21.831682
67.927012	16.570875
67.952076	16.561432
67.977109	16.552519
68.002135	16.543879
68.027175	16.535651
68.052209	8.881731
68.077214	8.879100
68.102212	-6.388585
68.127204	8.874818
68.152189	1.251705
68.177146	16.483424
68.202140	1.259473
68.227082	16.466587
68.252060	-6.330476
68.277011	-13.910916
68.301890	16.441347
68.326870	16.432838
68.351800	16.424549
68.376682	16.415907
68.401642	16.407146
68.426529	16.398741
68.451410	16.389276
68.476347	16.380989
68.501235	16.373251
68.526138	-6.222417
68.550907	16.355316
68.575859	16.346326
68.600656	16.338380
68.625532	16.329465
68.650402	16.320685
68.675243	16.312300
68.700120	8.818483
68.724947	-6.140744
68.749747	16.285373
68.774540	16.277198
68.799349	16.268622
68.824193	1.353437
68.848862	16.252254
68.873776	-6.080434
68.898516	16.235570
68.923334	1.368415
68.948103	-28.321638
68.972846	16.211347
68.997519	16.203157
69.022248	16.195036
69.047117	-13.415771
69.071791	16.179140
69.096541	16.170874
69.121223	16.162652
69.146022	8.776727
69.170546	16.145920
69.195436	8.772167
69.220111	16.128529
69.244800	16.120607
69.269441	16.112435
69.294180	-42.631326
69.318828	16.096421
69.343511	-13.235734
69.368106	16.080179
69.392816	-5.885891
69.417396	16.063300
69.442072	16.054918
69.466638	16.046458
69.491342	8.742982
69.515936	16.031160
69.540482	16.023090
69.565123	16.014710
69.589737	16.007093
69.614345	-5.805297
69.638885	15.991375
69.663500	-5.789119
69.688068	-20.284184
69.712629	8.721614
69.737123	15.960373
69.761731	-5.752873
69.786212	15.944129
69.810808	-5.735878
69.835315	15.927857
69.859774	15.920340
69.884370	-20.125356
69.908878	8.702035
69.933337	15.896229
69.957749	15.888681
69.982358	-20.046249
70.006818	15.873103
70.031271	15.865094
70.055779	8.688444
70.080220	15.849405
70.104696	8.684161
70.129145	-5.622701
70.153445	15.825285
70.177899	15.817925
70.202447	1.537787
70.226747	15.801863
70.251280	8.668723
70.275685	-26.926912
70.299964	15.778078
70.324377	15.770034
70.348863	-5.547066
70.373222	15.755008
70.397614	8.654168
70.421879	15.738959
70.446237	15.731846
70.470669	15.723803
70.495034	8.644913
70.519333	15.707663
70.543684	15.699589
70.568008	15.691599
70.592344	8.634408
70.616652	8.631941
70.640954	-5.447278
70.665150	15.659812
70.689318	15.652080
70.713817	8.622182
70.737953	15.636291
70.762220	15.629507
70.786580	15.621248
70.810776	15.613979
70.835122	8.610365
70.859305	15.599706
70.883539	15.591516
70.907806	15.583501
70.931986	15.576060
70.956239	15.568215
70.980445	15.560681
71.004528	15.552609
71.028859	-12.270155
71.052969	15.537495
71.077229	1.643918
71.101367	15.523850
71.125402	15.516608
71.149684	15.509519
71.173803	15.501854
71.197916	15.494644
71.222198	-12.166990
71.246260	15.480966
71.270374	15.472936
71.294577	15.465669
71.318696	15.458429
71.342828	8.562330
71.366934	8.560159
71.391015	15.436214
71.415109	15.429122
71.439198	15.421885
71.463279	15.413973
71.487027	15.406886
71.511386	15.399994
71.535430	15.392337
71.559448	15.384481
71.583595	15.377498
71.607581	15.370024
71.631695	-5.118410
71.655708	15.355804
71.679751	-5.103379
71.703769	8.528520
71.727761	15.333747
71.751747	15.325495
71.775763	15.318181
71.799678	15.310824
71.823740	15.304342
71.847605	15.297508
71.871672	15.290223
71.895676	8.509918
71.919576	15.275844
71.943587	8.505841
71.967515	15.262701
71.991399	15.255072
72.015409	-25.247392
72.039243	15.241606
72.063241	15.234723
72.087081	15.227881
72.111048	15.220831
72.134988	-11.689046
72.158809	15.205433
72.182697	15.198317
72.206486	15.190641
72.230457	15.183116
72.254403	8.475976
72.278247	15.169703
72.302047	15.163620
72.325936	15.156542
72.349760	15.149227
72.373579	15.142620
72.397485	8.462646
72.421236	15.129349
72.445112	15.122561
72.468943	1.795895
72.492694	15.109021
72.516552	-4.849408
72.540310	15.095813
72.563988	15.088929
72.587883	15.081682
72.611603	15.074618
72.635466	-18.066432
72.659157	15.061381
72.682916	15.054044
72.706726	15.047189
72.730418	15.040021
72.754233	-24.582761
72.777968	-4.766947
72.801697	-17.947797
72.825401	15.012678
72.849100	15.005266
72.872847	-31.054114
72.896533	14.992009
72.920175	14.985461
72.943941	-4.717405
72.967609	14.971385
72.991309	1.854445
73.014984	8.407012
73.038617	14.950627
73.062208	14.944206
73.085922	14.937574
73.109612	14.931333
73.133260	14.924801
73.156901	14.917441
73.180499	14.911348
73.204075	14.905037
73.227809	-24.154417
73.251372	14.890947
73.274929	14.883587
73.298607	14.876663
73.322095	14.870065
73.345815	14.862457
73.369417	-17.547373
73.392775	14.847920
73.416401	14.841806
73.440038	14.834954
73.463614	14.828473
73.487240	8.363379
73.510695	14.815229
73.534327	1.909460
73.557844	14.802933
73.581373	14.795593
73.604913	-4.520192
73.628428	8.349808
73.651900	14.774828
73.675419	14.768736
73.698932	-4.495005
73.722314	14.755384
73.745905	-17.300566
73.769364	14.742086
73.792834	14.734809
73.816263	14.728301
73.839775	-10.845047
73.863191	14.714886
73.886654	14.708463
73.910021	14.702320
73.933527	14.695823
73.956973	8.319468
73.980378	14.682523
74.003813	8.315820
74.027137	14.670507
74.050258	14.664280
74.073999	14.657514
74.097429	-17.068125
74.120781	14.644254
74.144125	14.638267
74.167572	-29.686097
74.190889	14.625516
74.214307	-4.347402
74.237667	1.977233
74.261003	14.606197
74.284351	14.600523
74.307676	14.593543
74.331047	-23.216011
74.354271	14.580604
74.377648	14.573873
74.401000	14.568170
74.424329	8.277800
74.447528	14.555244
74.470898	14.548757
74.494173	14.541864
74.517478	14.535549
74.540795	8.267651
74.564000	14.522418
74.587198	14.515926
74.610602	-4.238351
74.633805	14.503239
74.657055	14.496834
74.680335	14.491154
74.703540	14.485032
74.726721	14.478834
74.750055	8.248631
74.773227	14.467184
74.796447	14.462197
